---START---
-255.00, 39.23, 153.83, -23.30, -7.07, 115.05, -9.40, 4.03, 
-254.00, 32.12, 148.93, -18.81, -7.06, 114.81, -9.42, 4.02, 
-253.00, 32.06, 148.55, -18.99, -7.05, 114.57, -9.43, 4.01, 
-252.00, 32.11, 148.56, -19.17, -7.05, 114.33, -9.45, 4.01, 
-251.00, 31.94, 148.55, -19.57, -7.04, 114.08, -9.46, 4.01, 
-250.00, 32.06, 148.19, -19.42, -7.03, 113.84, -9.48, 4.01, 
-249.00, 32.13, 147.89, -19.42, -7.02, 113.60, -9.49, 4.01, 
-248.00, 32.47, 147.42, -19.41, -7.02, 113.36, -9.51, 4.01, 
-247.00, 32.52, 147.27, -19.57, -7.01, 113.11, -9.53, 4.01, 
-246.00, 32.66, 147.25, -19.28, -7.00, 112.87, -9.54, 4.01, 
-245.00, 32.43, 146.64, -19.37, -6.99, 112.63, -9.56, 4.01, 
-244.00, 32.15, 146.85, -19.04, -6.99, 112.38, -9.57, 4.01, 
-243.00, 31.93, 146.50, -19.63, -6.98, 112.14, -9.59, 4.01, 
-242.00, 31.98, 146.51, -19.36, -6.97, 111.90, -9.61, 4.00, 
-241.00, 31.95, 146.14, -19.09, -6.96, 111.65, -9.62, 4.01, 
-240.00, 31.74, 145.96, -19.32, -6.96, 111.41, -9.64, 4.01, 
-239.00, 31.77, 146.17, -18.95, -6.95, 111.17, -9.65, 4.01, 
-238.00, 31.63, 145.75, -18.66, -6.94, 110.92, -9.67, 4.01, 
-237.00, 31.42, 145.11, -18.80, -6.93, 110.68, -9.69, 4.01, 
-236.00, 31.52, 145.12, -19.15, -6.93, 110.43, -9.70, 4.01, 
-235.00, 31.90, 144.39, -19.44, -6.92, 110.19, -9.72, 4.01, 
-234.00, 31.93, 144.38, -19.35, -6.91, 109.94, -9.73, 4.01, 
-233.00, 31.83, 144.17, -19.31, -6.90, 109.70, -9.75, 4.01, 
-232.00, 31.87, 143.58, -19.28, -6.90, 109.45, -9.77, 4.01, 
-231.00, 31.63, 143.89, -19.56, -6.89, 109.21, -9.78, 4.02, 
-230.00, 31.69, 143.23, -19.38, -6.88, 108.96, -9.80, 4.00, 
-229.00, 31.60, 142.93, -19.16, -6.87, 108.72, -9.82, 4.01, 
-228.00, 31.54, 143.41, -18.85, -6.87, 108.47, -9.83, 4.01, 
-227.00, 31.53, 142.66, -19.49, -6.86, 108.22, -9.85, 4.02, 
-226.00, 31.75, 142.80, -19.47, -6.85, 107.98, -9.86, 4.02, 
-225.00, 31.72, 142.56, -19.46, -6.84, 107.73, -9.88, 4.02, 
-224.00, 31.74, 142.05, -19.28, -6.84, 107.49, -9.90, 4.02, 
-223.00, 31.99, 142.50, -19.51, -6.83, 107.24, -9.91, 4.02, 
-222.00, 31.88, 141.67, -19.79, -6.82, 106.99, -9.93, 4.02, 
-221.00, 31.77, 141.50, -19.50, -6.81, 106.75, -9.95, 4.02, 
-220.00, 31.86, 142.15, -19.60, -6.81, 106.50, -9.96, 4.02, 
-219.00, 31.76, 141.22, -19.23, -6.80, 106.25, -9.98, 4.02, 
-218.00, 31.73, 141.45, -18.35, -6.79, 106.00, -9.99, 4.02, 
-217.00, 31.37, 141.21, -18.16, -6.78, 105.76, -10.01, 4.02, 
-216.00, 31.40, 141.14, -18.08, -6.77, 105.51, -10.03, 4.02, 
-215.00, 31.51, 141.82, -17.83, -6.77, 105.26, -10.04, 4.01, 
-214.00, 31.53, 140.87, -18.05, -6.76, 105.01, -10.06, 4.01, 
-213.00, 31.50, 140.49, -18.69, -6.75, 104.77, -10.08, 4.01, 
-212.00, 31.29, 140.71, -18.20, -6.74, 104.52, -10.09, 4.01, 
-211.00, 31.53, 139.89, -18.76, -6.74, 104.27, -10.11, 4.02, 
-210.00, 31.63, 139.67, -18.66, -6.73, 104.02, -10.13, 4.02, 
-209.00, 31.84, 139.52, -18.97, -6.72, 103.77, -10.14, 4.02, 
-208.00, 31.63, 138.27, -19.16, -6.71, 103.53, -10.16, 4.02, 
-207.00, 31.94, 138.58, -19.56, -6.71, 103.28, -10.17, 4.02, 
-206.00, 32.07, 137.94, -19.63, -6.70, 103.03, -10.19, 4.02, 
-205.00, 31.73, 137.24, -20.12, -6.69, 102.78, -10.21, 4.02, 
-204.00, 31.80, 138.22, -20.31, -6.68, 102.53, -10.22, 4.02, 
-203.00, 32.15, 137.52, -20.55, -6.67, 102.28, -10.24, 4.02, 
-202.00, 32.12, 138.37, -20.47, -6.67, 102.03, -10.26, 4.02, 
-201.00, 32.03, 137.83, -20.67, -6.66, 101.78, -10.27, 4.01, 
-200.00, 31.76, 136.70, -20.81, -6.65, 101.53, -10.29, 4.02, 
-199.00, 31.82, 137.77, -20.34, -6.64, 101.28, -10.31, 4.02, 
-198.00, 31.83, 136.16, -20.46, -6.63, 101.03, -10.32, 4.02, 
-197.00, 31.70, 136.14, -19.86, -6.63, 100.78, -10.34, 4.02, 
-196.00, 31.49, 137.33, -19.18, -6.62, 100.53, -10.36, 4.02, 
-195.00, 31.48, 136.69, -18.48, -6.61, 100.28, -10.37, 4.02, 
-194.00, 31.14, 137.68, -18.71, -6.60, 100.03, -10.39, 4.02, 
-193.00, 30.82, 136.81, -18.19, -6.60, 99.78, -10.41, 4.01, 
-192.00, 30.24, 135.24, -18.68, -6.59, 99.53, -10.42, 4.01, 
-191.00, 29.80, 136.77, -18.78, -6.58, 99.28, -10.44, 4.01, 
-190.00, 29.96, 135.28, -18.76, -6.57, 99.03, -10.46, 4.02, 
-189.00, 29.32, 134.63, -18.64, -6.56, 98.78, -10.47, 4.02, 
-188.00, 29.15, 135.27, -18.44, -6.56, 98.53, -10.49, 4.03, 
-187.00, 29.52, 133.95, -18.42, -6.55, 98.28, -10.51, 4.03, 
-186.00, 29.38, 135.62, -18.86, -6.54, 98.02, -10.52, 4.02, 
-185.00, 29.47, 135.15, -18.21, -6.53, 97.77, -10.54, 4.02, 
-184.00, 29.49, 134.29, -18.54, -6.52, 97.52, -10.56, 4.02, 
-183.00, 28.95, 135.27, -18.65, -6.52, 97.27, -10.57, 4.03, 
-182.00, 29.34, 133.34, -18.18, -6.51, 97.02, -10.59, 4.03, 
-181.00, 29.46, 134.19, -18.79, -6.50, 96.77, -10.61, 4.03, 
-180.00, 29.39, 132.67, -18.09, -6.49, 96.51, -10.62, 4.02, 
-179.00, 29.47, 132.39, -18.52, -6.48, 96.26, -10.64, 4.02, 
-178.00, 29.70, 133.70, -18.13, -6.48, 96.01, -10.66, 4.02, 
-177.00, 29.89, 132.26, -18.09, -6.47, 95.76, -10.67, 4.03, 
-176.00, 29.79, 133.64, -18.08, -6.46, 95.50, -10.69, 4.03, 
-175.00, 29.55, 132.42, -18.32, -6.45, 95.25, -10.71, 4.03, 
-174.00, 29.44, 131.82, -18.38, -6.44, 95.00, -10.73, 4.02, 
-173.00, 29.68, 132.05, -18.47, -6.44, 94.75, -10.74, 4.02, 
-172.00, 29.06, 130.88, -18.30, -6.43, 94.49, -10.76, 4.03, 
-171.00, 29.76, 131.86, -18.03, -6.42, 94.24, -10.78, 4.03, 
-170.00, 29.43, 129.87, -18.06, -6.41, 93.99, -10.79, 4.02, 
-169.00, 29.50, 130.61, -18.01, -6.40, 93.73, -10.81, 4.02, 
-168.00, 30.66, 129.66, -18.01, -6.39, 93.48, -10.83, 4.03, 
-167.00, 30.10, 131.14, -18.38, -6.39, 93.23, -10.84, 4.03, 
-166.00, 30.10, 129.95, -18.64, -6.38, 92.97, -10.86, 4.03, 
-165.00, 30.04, 129.94, -18.63, -6.37, 92.72, -10.88, 4.02, 
-164.00, 29.87, 130.92, -18.49, -6.36, 92.47, -10.90, 4.02, 
-163.00, 29.13, 128.67, -18.53, -6.35, 92.21, -10.91, 4.03, 
-162.00, 30.44, 130.00, -18.49, -6.35, 91.96, -10.93, 4.03, 
-161.00, 29.80, 127.91, -18.25, -6.34, 91.70, -10.95, 4.03, 
-160.00, 29.92, 128.58, -18.58, -6.33, 91.45, -10.96, 4.02, 
-159.00, 29.95, 128.26, -18.12, -6.32, 91.19, -10.98, 4.03, 
-158.00, 29.88, 127.35, -18.13, -6.31, 90.94, -11.00, 4.03, 
-157.00, 29.85, 128.68, -18.18, -6.30, 90.69, -11.01, 4.03, 
-156.00, 29.94, 127.95, -18.26, -6.30, 90.43, -11.03, 4.02, 
-155.00, 29.60, 128.78, -18.25, -6.29, 90.18, -11.05, 4.03, 
-154.00, 29.63, 127.42, -18.72, -6.28, 89.92, -11.07, 4.03, 
-153.00, 29.66, 126.92, -18.50, -6.27, 89.67, -11.08, 4.04, 
-152.00, 30.04, 126.81, -18.36, -6.26, 89.41, -11.10, 4.02, 
-151.00, 29.66, 125.70, -18.64, -6.26, 89.16, -11.12, 4.03, 
-150.00, 29.73, 127.65, -18.58, -6.25, 88.90, -11.13, 4.04, 
-149.00, 29.77, 126.30, -18.40, -6.24, 88.64, -11.15, 4.02, 
-148.00, 29.62, 126.21, -18.45, -6.23, 88.39, -11.17, 4.03, 
-147.00, 29.76, 126.28, -18.39, -6.22, 88.13, -11.19, 4.03, 
-146.00, 30.03, 124.73, -18.06, -6.21, 87.88, -11.20, 4.04, 
-145.00, 29.85, 126.12, -18.18, -6.21, 87.62, -11.22, 4.03, 
-144.00, 30.18, 124.61, -18.01, -6.20, 87.37, -11.24, 4.03, 
-143.00, 30.11, 125.69, -18.56, -6.19, 87.11, -11.26, 4.04, 
-142.00, 30.00, 124.93, -18.61, -6.18, 86.85, -11.27, 4.03, 
-141.00, 29.74, 123.03, -18.10, -6.17, 86.60, -11.29, 4.03, 
-140.00, 29.76, 125.41, -18.77, -6.16, 86.34, -11.31, 4.03, 
-139.00, 30.00, 122.85, -18.98, -6.16, 86.08, -11.32, 4.04, 
-138.00, 29.76, 123.96, -18.54, -6.15, 85.83, -11.34, 4.03, 
-137.00, 29.93, 123.55, -18.62, -6.14, 85.57, -11.36, 4.03, 
-136.00, 29.62, 121.70, -18.40, -6.13, 85.31, -11.38, 4.04, 
-135.00, 29.47, 123.42, -18.73, -6.12, 85.06, -11.39, 4.03, 
-134.00, 29.65, 122.53, -18.74, -6.11, 84.80, -11.41, 4.03, 
-133.00, 29.63, 122.98, -18.81, -6.11, 84.54, -11.43, 4.04, 
-132.00, 29.69, 122.03, -18.81, -6.10, 84.29, -11.45, 4.03, 
-131.00, 29.62, 120.98, -18.57, -6.09, 84.03, -11.46, 4.03, 
-130.00, 29.56, 122.70, -18.67, -6.08, 83.77, -11.48, 4.04, 
-129.00, 30.25, 121.77, -18.75, -6.07, 83.51, -11.50, 4.04, 
-128.00, 30.18, 120.46, -19.10, -6.06, 83.26, -11.52, 4.03, 
-127.00, 30.26, 120.84, -18.76, -6.06, 83.00, -11.53, 4.03, 
-126.00, 30.33, 119.38, -18.82, -6.05, 82.74, -11.55, 4.04, 
-125.00, 30.29, 120.81, -18.87, -6.04, 82.48, -11.57, 4.03, 
-124.00, 30.51, 119.82, -18.86, -6.03, 82.23, -11.59, 4.03, 
-123.00, 30.44, 118.83, -19.01, -6.02, 81.97, -11.60, 4.04, 
-122.00, 30.41, 120.28, -19.18, -6.01, 81.71, -11.62, 4.03, 
-121.00, 30.33, 119.36, -19.13, -6.01, 81.45, -11.64, 4.04, 
-120.00, 30.22, 119.30, -19.39, -6.00, 81.19, -11.66, 4.04, 
-119.00, 30.32, 118.92, -18.74, -5.99, 80.94, -11.67, 4.03, 
-118.00, 30.32, 117.43, -18.84, -5.98, 80.68, -11.69, 4.04, 
-117.00, 30.33, 119.22, -19.06, -5.97, 80.42, -11.71, 4.03, 
-116.00, 30.01, 117.17, -19.22, -5.96, 80.16, -11.73, 4.03, 
-115.00, 30.26, 117.15, -19.14, -5.95, 79.90, -11.74, 4.04, 
-114.00, 30.30, 118.06, -18.89, -5.95, 79.64, -11.76, 4.03, 
-113.00, 30.13, 116.80, -18.94, -5.94, 79.38, -11.78, 4.04, 
-112.00, 30.41, 117.52, -18.72, -5.93, 79.13, -11.80, 4.03, 
-111.00, 30.36, 116.41, -19.28, -5.92, 78.87, -11.82, 4.03, 
-110.00, 30.20, 116.81, -19.13, -5.91, 78.61, -11.83, 4.04, 
-109.00, 30.45, 117.47, -18.97, -5.90, 78.35, -11.85, 4.03, 
-108.00, 30.10, 115.25, -18.88, -5.90, 78.09, -11.87, 4.04, 
-107.00, 29.96, 116.39, -18.88, -5.89, 77.83, -11.89, 4.03, 
-106.00, 30.23, 116.57, -18.85, -5.88, 77.57, -11.90, 4.03, 
-105.00, 29.70, 115.03, -18.86, -5.87, 77.31, -11.92, 4.04, 
-104.00, 30.30, 116.09, -18.96, -5.86, 77.05, -11.94, 4.04, 
-103.00, 30.56, 114.04, -18.80, -5.85, 76.79, -11.96, 4.04, 
-102.00, 29.39, 115.35, -18.99, -5.84, 76.53, -11.98, 4.03, 
-101.00, 30.34, 114.09, -18.88, -5.84, 76.27, -11.99, 4.04, 
-100.00, 30.26, 114.68, -19.61, -5.83, 76.01, -12.01, 4.04, 
-99.00, 30.58, 115.31, -19.16, -5.82, 75.75, -12.03, 4.04, 
-98.00, 30.45, 113.07, -19.42, -5.81, 75.49, -12.05, 4.04, 
-97.00, 30.20, 113.75, -19.90, -5.80, 75.23, -12.06, 4.04, 
-96.00, 30.72, 114.14, -19.32, -5.79, 74.97, -12.08, 4.04, 
-95.00, 30.70, 112.67, -19.41, -5.78, 74.71, -12.10, 4.04, 
-94.00, 30.92, 113.14, -19.24, -5.78, 74.45, -12.12, 4.04, 
-93.00, 30.96, 112.16, -19.03, -5.77, 74.19, -12.14, 4.04, 
-92.00, 30.56, 113.06, -19.62, -5.76, 73.93, -12.15, 4.04, 
-91.00, 30.65, 112.20, -19.59, -5.75, 73.67, -12.17, 4.04, 
-90.00, 31.05, 111.18, -19.18, -5.74, 73.41, -12.19, 4.04, 
-89.00, 30.15, 112.97, -19.18, -5.73, 73.15, -12.21, 4.04, 
-88.00, 30.49, 111.51, -19.02, -5.72, 72.89, -12.23, 4.04, 
-87.00, 30.45, 112.23, -19.53, -5.72, 72.63, -12.24, 4.04, 
-86.00, 30.49, 111.38, -19.65, -5.71, 72.37, -12.26, 4.04, 
-85.00, 30.11, 110.80, -20.25, -5.70, 72.11, -12.28, 4.04, 
-84.00, 30.43, 111.37, -19.92, -5.69, 71.85, -12.30, 4.04, 
-83.00, 30.49, 108.97, -19.72, -5.68, 71.59, -12.32, 4.04, 
-82.00, 30.59, 109.89, -19.52, -5.67, 71.33, -12.33, 4.04, 
-81.00, 30.64, 109.58, -19.63, -5.66, 71.06, -12.35, 4.04, 
-80.00, 30.47, 108.40, -20.03, -5.66, 70.80, -12.37, 4.04, 
-79.00, 30.80, 109.37, -19.65, -5.65, 70.54, -12.39, 4.04, 
-78.00, 30.90, 108.66, -19.30, -5.64, 70.28, -12.41, 4.04, 
-77.00, 30.73, 107.96, -18.98, -5.63, 70.02, -12.42, 4.04, 
-76.00, 30.55, 109.33, -19.36, -5.62, 69.76, -12.44, 4.04, 
-75.00, 30.66, 108.18, -19.49, -5.61, 69.50, -12.46, 4.04, 
-74.00, 30.61, 108.28, -19.69, -5.60, 69.23, -12.48, 4.04, 
-73.00, 30.55, 108.19, -18.99, -5.59, 68.97, -12.50, 4.04, 
-72.00, 30.60, 106.63, -19.37, -5.59, 68.71, -12.51, 4.04, 
-71.00, 30.65, 106.86, -19.50, -5.58, 68.45, -12.53, 4.04, 
-70.00, 30.48, 106.85, -19.13, -5.57, 68.19, -12.55, 4.04, 
-69.00, 30.64, 105.83, -19.50, -5.56, 67.93, -12.57, 4.04, 
-68.00, 30.99, 106.74, -19.59, -5.55, 67.66, -12.59, 4.04, 
-67.00, 31.08, 106.52, -19.55, -5.54, 67.40, -12.61, 4.04, 
-66.00, 30.79, 105.43, -19.64, -5.53, 67.14, -12.62, 4.04, 
-65.00, 30.91, 106.36, -19.36, -5.53, 66.88, -12.64, 4.04, 
-64.00, 30.78, 104.47, -19.37, -5.52, 66.62, -12.66, 4.04, 
-63.00, 30.84, 105.10, -19.66, -5.51, 66.35, -12.68, 4.04, 
-62.00, 30.93, 105.00, -19.56, -5.50, 66.09, -12.70, 4.04, 
-61.00, 30.93, 103.82, -19.43, -5.49, 65.83, -12.72, 4.04, 
-60.00, 30.77, 104.40, -19.70, -5.48, 65.57, -12.73, 4.04, 
-59.00, 30.74, 104.31, -19.35, -5.47, 65.30, -12.75, 4.04, 
-58.00, 30.68, 104.05, -19.59, -5.46, 65.04, -12.77, 4.04, 
-57.00, 30.75, 104.43, -19.71, -5.46, 64.78, -12.79, 4.04, 
-56.00, 30.74, 102.61, -19.77, -5.45, 64.52, -12.81, 4.04, 
-55.00, 30.69, 102.99, -19.43, -5.44, 64.25, -12.83, 4.04, 
-54.00, 30.68, 102.99, -19.61, -5.43, 63.99, -12.84, 4.04, 
-53.00, 30.86, 102.21, -19.63, -5.42, 63.73, -12.86, 4.04, 
-52.00, 30.83, 102.78, -19.31, -5.41, 63.47, -12.88, 4.04, 
-51.00, 30.93, 103.64, -19.83, -5.40, 63.20, -12.90, 4.04, 
-50.00, 31.01, 101.57, -19.64, -5.39, 62.94, -12.92, 4.04, 
-49.00, 31.10, 102.60, -19.63, -5.39, 62.68, -12.94, 4.04, 
-48.00, 31.27, 101.79, -19.93, -5.38, 62.42, -12.95, 4.04, 
-47.00, 30.82, 101.40, -20.27, -5.37, 62.15, -12.97, 4.04, 
-46.00, 30.60, 101.77, -20.07, -5.36, 61.89, -12.99, 4.04, 
-45.00, 30.72, 101.08, -20.00, -5.35, 61.63, -13.01, 4.04, 
-44.00, 31.11, 100.70, -19.87, -5.34, 61.36, -13.03, 4.04, 
-43.00, 30.78, 101.12, -20.31, -5.33, 61.10, -13.05, 4.04, 
-42.00, 31.03, 99.65, -20.16, -5.32, 60.84, -13.07, 4.04, 
-41.00, 30.94, 100.15, -19.92, -5.32, 60.57, -13.08, 4.04, 
-40.00, 31.03, 99.75, -20.43, -5.31, 60.31, -13.10, 4.04, 
-39.00, 31.02, 99.45, -20.17, -5.30, 60.05, -13.12, 4.04, 
-38.00, 30.70, 99.82, -20.16, -5.29, 59.78, -13.14, 4.04, 
-37.00, 30.70, 98.75, -20.32, -5.28, 59.52, -13.16, 4.04, 
-36.00, 30.82, 99.54, -20.23, -5.27, 59.26, -13.18, 4.04, 
-35.00, 30.83, 98.39, -20.01, -5.26, 58.99, -13.20, 4.04, 
-34.00, 30.92, 98.50, -20.66, -5.25, 58.73, -13.21, 4.04, 
-33.00, 30.77, 98.76, -20.66, -5.25, 58.47, -13.23, 4.05, 
-32.00, 30.89, 98.25, -19.75, -5.24, 58.20, -13.25, 4.04, 
-31.00, 30.96, 97.47, -20.18, -5.23, 57.94, -13.27, 4.04, 
-30.00, 31.20, 97.87, -20.26, -5.22, 57.68, -13.29, 4.04, 
-29.00, 31.16, 96.69, -20.39, -5.21, 57.41, -13.31, 4.04, 
-28.00, 30.93, 97.12, -20.44, -5.20, 57.15, -13.33, 4.04, 
-27.00, 31.41, 96.43, -20.31, -5.19, 56.88, -13.35, 4.04, 
-26.00, 31.18, 96.38, -20.72, -5.18, 56.62, -13.36, 4.04, 
-25.00, 31.32, 96.30, -20.22, -5.18, 56.36, -13.38, 4.04, 
-24.00, 31.10, 95.73, -20.05, -5.17, 56.09, -13.40, 4.04, 
-23.00, 31.10, 95.59, -20.52, -5.16, 55.83, -13.42, 4.04, 
-22.00, 31.36, 95.52, -20.77, -5.15, 55.57, -13.44, 4.04, 
-21.00, 31.28, 94.68, -20.34, -5.14, 55.30, -13.46, 4.04, 
-20.00, 31.61, 94.78, -20.37, -5.13, 55.04, -13.48, 4.04, 
-19.00, 31.51, 93.93, -20.61, -5.12, 54.77, -13.50, 4.04, 
-18.00, 31.20, 94.07, -20.37, -5.11, 54.51, -13.51, 4.04, 
-17.00, 31.27, 93.94, -21.08, -5.10, 54.25, -13.53, 4.04, 
-16.00, 31.57, 93.19, -20.86, -5.10, 53.98, -13.55, 4.04, 
-15.00, 31.75, 93.61, -20.45, -5.09, 53.72, -13.57, 4.04, 
-14.00, 31.88, 93.15, -20.65, -5.08, 53.45, -13.59, 4.04, 
-13.00, 31.70, 93.15, -21.16, -5.07, 53.19, -13.61, 4.04, 
-12.00, 31.97, 92.64, -20.71, -5.06, 52.92, -13.63, 4.04, 
-11.00, 31.70, 92.89, -20.49, -5.05, 52.66, -13.65, 4.04, 
-10.00, 31.67, 92.00, -20.73, -5.04, 52.40, -13.67, 4.04, 
-9.00, 31.81, 91.81, -20.88, -5.03, 52.13, -13.68, 4.04, 
-8.00, 31.76, 91.67, -20.87, -5.03, 51.87, -13.70, 4.04, 
-7.00, 32.05, 91.06, -20.49, -5.02, 51.60, -13.72, 4.04, 
-6.00, 31.87, 90.97, -20.64, -5.01, 51.34, -13.74, 4.04, 
-5.00, 31.70, 91.05, -20.56, -5.00, 51.07, -13.76, 4.04, 
-4.00, 31.52, 90.46, -20.48, -4.99, 50.81, -13.78, 4.04, 
-3.00, 31.66, 90.51, -20.58, -4.98, 50.55, -13.80, 4.04, 
-2.00, 31.86, 90.39, -20.50, -4.97, 50.28, -13.82, 4.04, 
-1.00, 31.72, 90.02, -20.97, -4.96, 50.02, -13.84, 4.04, 
0.00, 31.81, 89.70, -20.74, -4.95, 49.75, -13.86, 4.04, 
1.00, 31.95, 90.52, -20.25, -4.95, 49.49, -13.87, 4.04, 
2.00, 31.83, 89.39, -20.61, -4.94, 49.22, -13.89, 4.04, 
3.00, 31.93, 89.25, -20.45, -4.93, 48.96, -13.91, 4.04, 
4.00, 31.98, 88.99, -20.49, -4.92, 48.69, -13.93, 4.04, 
5.00, 32.16, 88.52, -20.71, -4.91, 48.43, -13.95, 4.04, 
6.00, 31.86, 88.28, -20.47, -4.90, 48.16, -13.97, 4.04, 
7.00, 31.84, 87.97, -20.29, -4.89, 47.90, -13.99, 4.04, 
8.00, 31.89, 87.91, -20.68, -4.88, 47.63, -14.01, 4.04, 
9.00, 32.07, 87.49, -20.95, -4.88, 47.37, -14.03, 4.04, 
10.00, 31.83, 87.07, -20.70, -4.87, 47.11, -14.05, 4.04, 
11.00, 31.77, 86.82, -20.77, -4.86, 46.84, -14.07, 4.04, 
12.00, 31.75, 86.73, -21.15, -4.85, 46.58, -14.09, 4.04, 
13.00, 31.93, 86.40, -20.54, -4.84, 46.31, -14.10, 4.04, 
14.00, 32.05, 86.59, -20.01, -4.83, 46.05, -14.12, 4.04, 
15.00, 31.90, 85.84, -20.23, -4.82, 45.78, -14.14, 4.04, 
16.00, 32.02, 85.69, -20.38, -4.81, 45.52, -14.16, 4.04, 
17.00, 31.87, 85.36, -20.34, -4.80, 45.25, -14.18, 4.04, 
18.00, 31.83, 84.81, -20.27, -4.80, 44.99, -14.20, 4.04, 
19.00, 31.86, 84.76, -20.32, -4.79, 44.72, -14.22, 4.04, 
20.00, 31.93, 84.37, -20.75, -4.78, 44.46, -14.24, 4.04, 
21.00, 32.17, 84.83, -20.59, -4.77, 44.19, -14.26, 4.04, 
22.00, 32.03, 84.40, -20.88, -4.76, 43.93, -14.28, 4.04, 
23.00, 32.11, 84.00, -20.65, -4.75, 43.66, -14.30, 4.04, 
24.00, 31.98, 83.41, -20.84, -4.74, 43.40, -14.32, 4.04, 
25.00, 31.87, 83.53, -20.66, -4.73, 43.13, -14.34, 4.04, 
26.00, 31.99, 83.42, -20.57, -4.72, 42.87, -14.36, 4.05, 
27.00, 31.58, 82.75, -20.21, -4.72, 42.60, -14.37, 4.04, 
28.00, 31.61, 82.93, -20.32, -4.71, 42.34, -14.39, 4.04, 
29.00, 31.82, 82.63, -19.74, -4.70, 42.07, -14.41, 4.04, 
30.00, 31.77, 82.15, -20.05, -4.69, 41.81, -14.43, 4.04, 
31.00, 32.13, 82.36, -20.58, -4.68, 41.54, -14.45, 4.04, 
32.00, 32.10, 81.36, -20.71, -4.67, 41.28, -14.47, 4.04, 
33.00, 31.93, 81.70, -20.68, -4.66, 41.02, -14.49, 4.04, 
34.00, 32.28, 81.51, -20.69, -4.65, 40.75, -14.51, 4.04, 
35.00, 32.14, 80.77, -20.58, -4.65, 40.49, -14.53, 4.04, 
36.00, 32.25, 81.02, -20.74, -4.64, 40.22, -14.55, 4.04, 
37.00, 32.16, 80.31, -20.60, -4.63, 39.96, -14.57, 4.04, 
38.00, 31.70, 79.66, -20.46, -4.62, 39.69, -14.59, 4.05, 
39.00, 31.87, 80.39, -20.26, -4.61, 39.43, -14.61, 4.04, 
40.00, 31.77, 79.59, -20.82, -4.60, 39.16, -14.63, 4.04, 
41.00, 32.13, 80.03, -21.29, -4.59, 38.90, -14.65, 4.04, 
42.00, 31.80, 79.19, -21.08, -4.58, 38.63, -14.67, 4.04, 
43.00, 32.32, 79.32, -20.93, -4.57, 38.37, -14.69, 4.04, 
44.00, 32.11, 79.06, -20.63, -4.57, 38.10, -14.71, 4.04, 
45.00, 31.99, 77.49, -20.68, -4.56, 37.84, -14.73, 4.04, 
46.00, 32.00, 78.68, -20.99, -4.55, 37.57, -14.74, 4.04, 
47.00, 32.10, 78.18, -21.23, -4.54, 37.31, -14.76, 4.04, 
48.00, 32.08, 77.08, -20.89, -4.53, 37.04, -14.78, 4.04, 
49.00, 32.14, 78.09, -20.83, -4.52, 36.78, -14.80, 4.04, 
50.00, 32.05, 76.95, -21.26, -4.51, 36.51, -14.82, 4.04, 
51.00, 32.09, 77.17, -21.10, -4.50, 36.25, -14.84, 4.04, 
52.00, 32.03, 76.39, -21.03, -4.50, 35.98, -14.86, 4.04, 
53.00, 32.08, 76.04, -21.52, -4.49, 35.72, -14.88, 4.04, 
54.00, 32.23, 77.29, -21.44, -4.48, 35.45, -14.90, 4.04, 
55.00, 32.20, 75.32, -21.42, -4.47, 35.19, -14.92, 4.04, 
56.00, 32.20, 76.46, -21.36, -4.46, 34.92, -14.94, 4.04, 
57.00, 32.09, 75.91, -21.07, -4.45, 34.66, -14.96, 4.04, 
58.00, 32.02, 74.39, -21.08, -4.44, 34.39, -14.98, 4.04, 
59.00, 32.03, 75.80, -21.56, -4.43, 34.13, -15.00, 4.04, 
60.00, 32.09, 74.59, -21.26, -4.42, 33.87, -15.02, 4.04, 
61.00, 32.01, 73.98, -21.63, -4.42, 33.60, -15.04, 4.04, 
62.00, 32.51, 74.46, -21.67, -4.41, 33.34, -15.06, 4.04, 
63.00, 32.27, 73.37, -21.25, -4.40, 33.07, -15.08, 4.04, 
64.00, 31.98, 73.69, -21.70, -4.39, 32.81, -15.10, 4.04, 
65.00, 32.18, 72.85, -21.28, -4.38, 32.54, -15.12, 4.04, 
66.00, 32.41, 73.25, -21.40, -4.37, 32.28, -15.14, 4.04, 
67.00, 32.24, 73.19, -21.74, -4.36, 32.01, -15.16, 4.04, 
68.00, 32.32, 71.54, -21.54, -4.35, 31.75, -15.18, 4.04, 
69.00, 32.28, 73.41, -21.71, -4.35, 31.48, -15.20, 4.04, 
70.00, 32.18, 71.50, -21.47, -4.34, 31.22, -15.22, 4.04, 
71.00, 32.45, 71.77, -21.50, -4.33, 30.95, -15.24, 4.04, 
72.00, 32.50, 72.53, -21.19, -4.32, 30.69, -15.26, 4.04, 
73.00, 32.35, 70.63, -21.39, -4.31, 30.43, -15.28, 4.04, 
74.00, 32.41, 72.25, -21.61, -4.30, 30.16, -15.30, 4.04, 
75.00, 32.59, 70.98, -21.50, -4.29, 29.90, -15.32, 4.04, 
76.00, 32.36, 69.76, -21.17, -4.28, 29.63, -15.34, 4.04, 
77.00, 32.68, 71.03, -21.06, -4.28, 29.37, -15.36, 4.04, 
78.00, 32.43, 69.24, -21.45, -4.27, 29.10, -15.38, 4.04, 
79.00, 32.44, 69.64, -21.55, -4.26, 28.84, -15.40, 4.04, 
80.00, 32.68, 69.58, -21.65, -4.25, 28.57, -15.42, 4.04, 
81.00, 32.62, 68.57, -21.91, -4.24, 28.31, -15.44, 4.04, 
82.00, 32.62, 69.43, -21.83, -4.23, 28.05, -15.46, 4.04, 
83.00, 32.58, 68.20, -21.96, -4.22, 27.78, -15.48, 4.04, 
84.00, 32.32, 69.21, -21.61, -4.21, 27.52, -15.50, 4.04, 
85.00, 32.60, 68.25, -21.41, -4.21, 27.25, -15.52, 4.04, 
86.00, 32.55, 68.16, -21.29, -4.20, 26.99, -15.54, 4.04, 
87.00, 32.70, 67.92, -21.35, -4.19, 26.72, -15.56, 4.04, 
88.00, 32.86, 67.28, -21.64, -4.18, 26.46, -15.58, 4.04, 
89.00, 32.85, 68.15, -21.19, -4.17, 26.20, -15.60, 4.04, 
90.00, 33.11, 66.33, -21.68, -4.16, 25.93, -15.62, 4.04, 
91.00, 32.87, 67.38, -21.49, -4.15, 25.67, -15.64, 4.04, 
92.00, 32.85, 65.81, -21.38, -4.14, 25.40, -15.66, 4.04, 
93.00, 32.98, 65.46, -21.28, -4.14, 25.14, -15.68, 4.04, 
94.00, 32.88, 67.00, -21.57, -4.13, 24.88, -15.70, 4.04, 
95.00, 32.93, 65.19, -21.47, -4.12, 24.61, -15.72, 4.04, 
96.00, 33.13, 65.85, -21.48, -4.11, 24.35, -15.74, 4.04, 
97.00, 33.15, 64.53, -21.48, -4.10, 24.08, -15.76, 4.04, 
98.00, 32.70, 64.83, -22.14, -4.09, 23.82, -15.78, 4.04, 
99.00, 33.10, 64.24, -21.58, -4.08, 23.56, -15.80, 4.04, 
100.00, 33.10, 63.45, -21.99, -4.07, 23.29, -15.82, 4.04, 
101.00, 32.85, 64.71, -21.64, -4.07, 23.03, -15.84, 4.04, 
102.00, 33.07, 63.49, -22.21, -4.06, 22.77, -15.86, 4.04, 
103.00, 33.07, 63.51, -21.98, -4.05, 22.50, -15.88, 4.03, 
104.00, 33.37, 63.88, -22.26, -4.04, 22.24, -15.90, 4.03, 
105.00, 33.68, 63.31, -22.18, -4.03, 21.97, -15.92, 4.04, 
106.00, 33.07, 63.90, -22.26, -4.02, 21.71, -15.94, 4.03, 
107.00, 33.23, 62.68, -21.52, -4.01, 21.45, -15.96, 4.03, 
108.00, 32.72, 62.59, -21.61, -4.00, 21.18, -15.98, 4.04, 
109.00, 32.85, 62.94, -21.65, -4.00, 20.92, -16.00, 4.03, 
110.00, 32.88, 62.06, -21.48, -3.99, 20.66, -16.02, 4.04, 
111.00, 33.16, 62.26, -21.74, -3.98, 20.39, -16.04, 4.04, 
112.00, 33.29, 62.04, -21.56, -3.97, 20.13, -16.06, 4.03, 
113.00, 33.44, 61.91, -21.75, -3.96, 19.87, -16.08, 4.03, 
114.00, 33.28, 60.99, -21.89, -3.95, 19.60, -16.10, 4.04, 
115.00, 32.98, 61.24, -22.15, -3.94, 19.34, -16.13, 4.03, 
116.00, 33.37, 60.96, -21.79, -3.94, 19.08, -16.15, 4.03, 
117.00, 33.18, 60.02, -22.16, -3.93, 18.81, -16.17, 4.04, 
118.00, 33.04, 61.38, -22.20, -3.92, 18.55, -16.19, 4.03, 
119.00, 32.88, 58.87, -21.90, -3.91, 18.29, -16.21, 4.03, 
120.00, 32.89, 61.11, -21.99, -3.90, 18.03, -16.23, 4.03, 
121.00, 33.04, 58.19, -21.88, -3.89, 17.76, -16.25, 4.04, 
122.00, 33.04, 60.36, -21.66, -3.88, 17.50, -16.27, 4.03, 
123.00, 32.87, 59.36, -21.82, -3.87, 17.24, -16.29, 4.03, 
124.00, 32.97, 58.82, -21.97, -3.87, 16.97, -16.31, 4.04, 
125.00, 33.34, 59.50, -21.93, -3.86, 16.71, -16.33, 4.04, 
126.00, 32.90, 58.19, -22.26, -3.85, 16.45, -16.35, 4.03, 
127.00, 33.13, 58.15, -21.95, -3.84, 16.19, -16.37, 4.03, 
128.00, 32.72, 58.00, -21.94, -3.83, 15.92, -16.39, 4.04, 
129.00, 32.68, 57.68, -21.64, -3.82, 15.66, -16.41, 4.03, 
130.00, 33.11, 57.00, -21.85, -3.81, 15.40, -16.43, 4.03, 
131.00, 32.99, 57.62, -21.96, -3.81, 15.14, -16.45, 4.03, 
132.00, 33.05, 55.65, -21.68, -3.80, 14.87, -16.47, 4.04, 
133.00, 32.84, 57.90, -22.48, -3.79, 14.61, -16.49, 4.03, 
134.00, 32.78, 55.33, -21.22, -3.78, 14.35, -16.52, 4.03, 
135.00, 32.91, 57.59, -21.17, -3.77, 14.09, -16.54, 4.03, 
136.00, 32.89, 55.02, -21.50, -3.76, 13.83, -16.56, 4.04, 
137.00, 32.91, 55.67, -21.73, -3.75, 13.56, -16.58, 4.04, 
138.00, 32.86, 55.76, -21.39, -3.75, 13.30, -16.60, 4.03, 
139.00, 33.01, 53.90, -21.77, -3.74, 13.04, -16.62, 4.03, 
140.00, 33.07, 55.59, -21.89, -3.73, 12.78, -16.64, 4.03, 
141.00, 33.00, 53.34, -21.26, -3.72, 12.52, -16.66, 4.03, 
142.00, 33.47, 55.69, -21.42, -3.71, 12.25, -16.68, 4.04, 
143.00, 33.03, 52.96, -21.83, -3.70, 11.99, -16.70, 4.03, 
144.00, 33.19, 54.60, -21.42, -3.69, 11.73, -16.72, 4.03, 
145.00, 33.22, 52.92, -22.17, -3.69, 11.47, -16.74, 4.03, 
146.00, 33.48, 53.68, -22.19, -3.68, 11.21, -16.76, 4.03, 
147.00, 33.61, 52.40, -22.13, -3.67, 10.95, -16.78, 4.04, 
148.00, 33.67, 52.79, -22.27, -3.66, 10.68, -16.80, 4.04, 
149.00, 33.42, 53.00, -22.42, -3.65, 10.42, -16.83, 4.03, 
150.00, 33.40, 52.22, -21.32, -3.64, 10.16, -16.85, 4.03, 
151.00, 33.81, 52.99, -22.05, -3.63, 9.90, -16.87, 4.02, 
152.00, 33.54, 51.03, -22.33, -3.63, 9.64, -16.89, 4.02, 
153.00, 33.28, 52.72, -22.66, -3.62, 9.38, -16.91, 4.04, 
154.00, 33.48, 50.27, -23.17, -3.61, 9.12, -16.93, 4.04, 
155.00, 33.52, 52.35, -22.52, -3.60, 8.86, -16.95, 4.03, 
156.00, 33.40, 49.44, -22.57, -3.59, 8.59, -16.97, 4.03, 
157.00, 33.61, 51.82, -22.96, -3.58, 8.33, -16.99, 4.03, 
158.00, 33.48, 49.29, -22.79, -3.58, 8.07, -17.01, 4.02, 
159.00, 33.26, 51.70, -22.41, -3.57, 7.81, -17.03, 4.02, 
160.00, 33.47, 49.32, -22.56, -3.56, 7.55, -17.06, 4.02, 
161.00, 33.43, 51.12, -22.67, -3.55, 7.29, -17.08, 4.03, 
162.00, 33.72, 49.20, -22.15, -3.54, 7.03, -17.10, 4.03, 
163.00, 33.57, 49.66, -22.78, -3.53, 6.77, -17.12, 4.03, 
164.00, 33.61, 49.77, -22.62, -3.52, 6.51, -17.14, 4.03, 
165.00, 33.50, 48.13, -22.14, -3.52, 6.25, -17.16, 4.03, 
166.00, 33.41, 49.49, -22.75, -3.51, 5.99, -17.18, 4.03, 
167.00, 33.67, 47.40, -22.54, -3.50, 5.73, -17.20, 4.03, 
168.00, 33.60, 48.63, -23.31, -3.49, 5.47, -17.22, 4.03, 
169.00, 33.22, 47.11, -22.47, -3.48, 5.21, -17.24, 4.03, 
170.00, 33.48, 47.60, -23.00, -3.47, 4.95, -17.26, 4.02, 
171.00, 33.62, 47.35, -22.91, -3.47, 4.69, -17.29, 4.02, 
172.00, 33.62, 46.12, -22.95, -3.46, 4.43, -17.31, 4.02, 
173.00, 33.77, 47.06, -22.50, -3.45, 4.17, -17.33, 4.02, 
174.00, 33.55, 45.71, -22.76, -3.44, 3.91, -17.35, 4.02, 
175.00, 33.56, 46.85, -22.60, -3.43, 3.65, -17.37, 4.02, 
176.00, 33.63, 45.89, -22.28, -3.42, 3.39, -17.39, 4.02, 
177.00, 33.29, 45.19, -22.81, -3.42, 3.13, -17.41, 4.02, 
178.00, 33.55, 46.08, -22.66, -3.41, 2.87, -17.43, 4.02, 
179.00, 33.54, 44.12, -23.07, -3.40, 2.61, -17.45, 4.02, 
180.00, 33.64, 46.05, -23.26, -3.39, 2.35, -17.48, 4.03, 
181.00, 33.63, 44.38, -23.01, -3.38, 2.09, -17.50, 4.03, 
182.00, 33.48, 45.05, -23.25, -3.37, 1.83, -17.52, 4.03, 
183.00, 33.84, 44.43, -23.11, -3.37, 1.57, -17.54, 4.03, 
184.00, 33.69, 43.61, -23.06, -3.36, 1.32, -17.56, 4.03, 
185.00, 33.97, 44.46, -23.63, -3.35, 1.06, -17.58, 4.03, 
186.00, 34.15, 43.21, -23.69, -3.34, 0.80, -17.60, 4.03, 
187.00, 34.00, 43.82, -23.50, -3.33, 0.54, -17.62, 4.03, 
188.00, 33.97, 43.36, -23.25, -3.32, 0.28, -17.65, 4.03, 
189.00, 34.20, 42.57, -23.59, -3.32, 0.02, -17.67, 4.03, 
190.00, 33.91, 43.62, -23.45, -3.31, -0.24, -17.69, 4.03, 
191.00, 33.77, 41.76, -23.40, -3.30, -0.49, -17.71, 4.01, 
192.00, 33.73, 43.33, -23.00, -3.29, -0.75, -17.73, 4.01, 
193.00, 33.61, 41.86, -22.65, -3.28, -1.01, -17.75, 4.01, 
194.00, 33.63, 42.26, -23.22, -3.27, -1.27, -17.77, 4.01, 
195.00, 33.76, 42.12, -23.51, -3.27, -1.53, -17.79, 4.02, 
196.00, 33.88, 41.29, -23.65, -3.26, -1.78, -17.82, 4.02, 
197.00, 34.12, 42.09, -22.78, -3.25, -2.04, -17.84, 4.02, 
198.00, 34.14, 40.35, -24.10, -3.24, -2.30, -17.86, 4.02, 
199.00, 33.64, 41.14, -23.16, -3.23, -2.56, -17.88, 4.02, 
200.00, 34.03, 41.45, -22.27, -3.22, -2.82, -17.90, 4.02, 
201.00, 34.03, 40.01, -23.27, -3.22, -3.07, -17.92, 4.02, 
202.00, 34.31, 40.32, -22.81, -3.21, -3.33, -17.94, 4.02, 
203.00, 34.12, 38.97, -23.30, -3.20, -3.59, -17.96, 4.02, 
204.00, 34.05, 39.91, -23.18, -3.19, -3.84, -17.99, 4.02, 
205.00, 33.94, 38.98, -22.96, -3.18, -4.10, -18.01, 4.02, 
206.00, 33.84, 39.17, -23.15, -3.18, -4.36, -18.03, 4.02, 
207.00, 33.87, 38.98, -23.15, -3.17, -4.62, -18.05, 4.02, 
208.00, 33.95, 38.10, -23.09, -3.16, -4.87, -18.07, 4.02, 
209.00, 33.76, 38.83, -22.88, -3.15, -5.13, -18.09, 4.02, 
210.00, 34.21, 38.13, -23.25, -3.14, -5.39, -18.11, 4.01, 
211.00, 34.07, 37.55, -23.34, -3.14, -5.64, -18.14, 4.02, 
212.00, 34.02, 37.68, -23.02, -3.13, -5.90, -18.16, 4.02, 
213.00, 34.13, 36.85, -22.69, -3.12, -6.16, -18.18, 4.01, 
214.00, 33.96, 36.78, -22.79, -3.11, -6.41, -18.20, 4.01, 
215.00, 33.99, 36.64, -22.48, -3.10, -6.67, -18.22, 4.01, 
216.00, 33.97, 36.54, -22.66, -3.09, -6.92, -18.24, 4.01, 
217.00, 33.92, 36.32, -23.10, -3.09, -7.18, -18.27, 4.02, 
218.00, 34.47, 35.40, -22.75, -3.08, -7.44, -18.29, 4.02, 
219.00, 34.09, 36.52, -22.81, -3.07, -7.69, -18.31, 4.02, 
220.00, 34.12, 35.95, -23.12, -3.06, -7.95, -18.33, 4.02, 
221.00, 33.91, 35.08, -23.15, -3.05, -8.20, -18.35, 4.02, 
222.00, 33.79, 35.38, -22.54, -3.05, -8.46, -18.37, 4.02, 
223.00, 34.03, 35.57, -22.98, -3.04, -8.71, -18.39, 4.02, 
224.00, 34.43, 35.04, -23.09, -3.03, -8.97, -18.42, 4.02, 
225.00, 34.44, 35.19, -23.30, -3.02, -9.22, -18.44, 4.02, 
226.00, 34.14, 33.89, -23.38, -3.01, -9.48, -18.46, 4.02, 
227.00, 34.30, 33.91, -23.37, -3.01, -9.73, -18.48, 4.02, 
228.00, 34.38, 33.73, -23.33, -3.00, -9.99, -18.50, 4.02, 
229.00, 34.31, 33.50, -23.45, -2.99, -10.24, -18.52, 4.00, 
230.00, 34.50, 33.60, -23.24, -2.98, -10.50, -18.55, 4.01, 
231.00, 34.12, 33.00, -23.57, -2.97, -10.75, -18.57, 4.01, 
232.00, 34.40, 33.11, -23.50, -2.97, -11.01, -18.59, 4.01, 
233.00, 34.64, 32.68, -23.74, -2.96, -11.26, -18.61, 4.01, 
234.00, 34.57, 32.32, -23.51, -2.95, -11.52, -18.63, 4.01, 
235.00, 34.60, 32.48, -23.07, -2.94, -11.77, -18.66, 4.01, 
236.00, 34.60, 31.79, -22.78, -2.93, -12.02, -18.68, 4.01, 
237.00, 34.55, 31.77, -23.27, -2.93, -12.28, -18.70, 4.01, 
238.00, 34.24, 31.07, -22.69, -2.92, -12.53, -18.72, 4.00, 
239.00, 34.34, 31.15, -23.36, -2.91, -12.78, -18.74, 4.01, 
240.00, 34.41, 31.45, -23.87, -2.90, -13.04, -18.76, 4.01, 
241.00, 34.36, 30.08, -24.04, -2.90, -13.29, -18.79, 4.01, 
242.00, 34.27, 30.75, -23.65, -2.89, -13.54, -18.81, 4.01, 
243.00, 34.77, 30.06, -23.30, -2.88, -13.80, -18.83, 4.01, 
244.00, 34.74, 30.00, -23.38, -2.87, -14.05, -18.85, 4.01, 
245.00, 34.64, 29.85, -23.49, -2.86, -14.30, -18.87, 4.01, 
246.00, 34.72, 29.18, -23.67, -2.86, -14.56, -18.89, 4.01, 
247.00, 34.49, 29.37, -23.56, -2.85, -14.81, -18.92, 4.01, 
248.00, 34.54, 28.53, -23.87, -2.84, -15.06, -18.94, 4.01, 
249.00, 34.73, 28.45, -23.96, -2.83, -15.31, -18.96, 4.01, 
250.00, 34.46, 28.32, -23.44, -2.82, -15.57, -18.98, 4.01, 
251.00, 34.72, 28.20, -23.42, -2.82, -15.82, -19.00, 4.01, 
252.00, 34.37, 27.97, -23.25, -2.81, -16.07, -19.03, 4.01, 
253.00, 34.44, 27.66, -23.30, -2.80, -16.32, -19.05, 4.00, 
254.00, 34.39, 27.33, -23.58, -2.79, -16.58, -19.07, 4.01, 
255.00, 34.38, 27.33, -23.95, -2.79, -16.83, -19.09, 4.00, 
