---START---
-255.00, 13.79, 170.48, -25.07, -7.07, 115.05, -9.40, 4.01, 
-254.00, 10.85, 161.18, -20.35, -7.06, 114.81, -9.42, 4.00, 
-253.00, 10.90, 161.13, -21.22, -7.05, 114.57, -9.43, 3.99, 
-252.00, 10.75, 160.66, -21.90, -7.05, 114.33, -9.45, 4.00, 
-251.00, 10.32, 160.37, -22.18, -7.04, 114.08, -9.46, 4.00, 
-250.00, 10.08, 159.85, -22.63, -7.03, 113.84, -9.48, 4.00, 
-249.00, 9.47, 159.42, -22.96, -7.02, 113.60, -9.49, 3.99, 
-248.00, 9.29, 159.40, -23.12, -7.02, 113.36, -9.51, 4.00, 
-247.00, 8.75, 159.33, -23.12, -7.01, 113.11, -9.53, 4.00, 
-246.00, 8.55, 159.29, -22.86, -7.00, 112.87, -9.54, 4.00, 
-245.00, 8.76, 158.84, -23.14, -6.99, 112.63, -9.56, 4.00, 
-244.00, 8.63, 158.95, -23.26, -6.99, 112.38, -9.57, 4.00, 
-243.00, 9.07, 158.62, -23.04, -6.98, 112.14, -9.59, 4.00, 
-242.00, 8.46, 158.47, -23.48, -6.97, 111.90, -9.61, 4.00, 
-241.00, 8.74, 158.19, -23.42, -6.96, 111.65, -9.62, 4.00, 
-240.00, 8.67, 158.26, -22.88, -6.96, 111.41, -9.64, 4.00, 
-239.00, 8.80, 158.14, -23.33, -6.95, 111.17, -9.65, 4.00, 
-238.00, 8.69, 158.08, -23.36, -6.94, 110.92, -9.67, 4.00, 
-237.00, 8.27, 157.56, -23.25, -6.93, 110.68, -9.69, 4.00, 
-236.00, 8.40, 157.36, -23.42, -6.93, 110.43, -9.70, 4.00, 
-235.00, 8.51, 156.53, -23.60, -6.92, 110.19, -9.72, 4.00, 
-234.00, 8.27, 156.81, -23.00, -6.91, 109.94, -9.73, 4.01, 
-233.00, 8.34, 156.13, -23.69, -6.90, 109.70, -9.75, 4.01, 
-232.00, 8.38, 156.13, -23.47, -6.90, 109.45, -9.77, 4.00, 
-231.00, 8.16, 155.30, -23.81, -6.89, 109.21, -9.78, 4.01, 
-230.00, 8.30, 155.83, -23.88, -6.88, 108.96, -9.80, 4.01, 
-229.00, 8.56, 155.13, -23.95, -6.87, 108.72, -9.82, 4.00, 
-228.00, 8.40, 154.92, -23.99, -6.87, 108.47, -9.83, 4.01, 
-227.00, 8.29, 155.22, -23.79, -6.86, 108.22, -9.85, 4.01, 
-226.00, 8.12, 154.39, -23.76, -6.85, 107.98, -9.86, 4.01, 
-225.00, 8.07, 154.89, -24.26, -6.84, 107.73, -9.88, 4.01, 
-224.00, 8.53, 153.86, -24.31, -6.84, 107.49, -9.90, 4.01, 
-223.00, 8.34, 153.38, -24.27, -6.83, 107.24, -9.91, 4.00, 
-222.00, 8.22, 153.39, -24.15, -6.82, 106.99, -9.93, 4.01, 
-221.00, 8.06, 153.07, -24.36, -6.81, 106.75, -9.95, 4.01, 
-220.00, 7.85, 153.13, -24.21, -6.81, 106.50, -9.96, 4.01, 
-219.00, 8.33, 152.77, -24.07, -6.80, 106.25, -9.98, 4.01, 
-218.00, 8.16, 152.15, -24.59, -6.79, 106.00, -9.99, 4.01, 
-217.00, 8.15, 152.43, -24.08, -6.78, 105.76, -10.01, 4.01, 
-216.00, 8.04, 151.75, -24.50, -6.77, 105.51, -10.03, 4.01, 
-215.00, 8.29, 152.32, -24.25, -6.77, 105.26, -10.04, 4.01, 
-214.00, 8.53, 151.46, -24.56, -6.76, 105.01, -10.06, 4.01, 
-213.00, 8.22, 151.20, -24.59, -6.75, 104.77, -10.08, 4.01, 
-212.00, 8.46, 151.51, -24.45, -6.74, 104.52, -10.09, 4.01, 
-211.00, 8.23, 150.69, -24.09, -6.74, 104.27, -10.11, 4.01, 
-210.00, 8.44, 151.46, -24.04, -6.73, 104.02, -10.13, 4.01, 
-209.00, 8.59, 150.77, -24.44, -6.72, 103.77, -10.14, 4.01, 
-208.00, 8.67, 150.55, -24.48, -6.71, 103.53, -10.16, 4.01, 
-207.00, 8.63, 150.58, -24.12, -6.71, 103.28, -10.17, 4.01, 
-206.00, 8.95, 149.49, -24.60, -6.70, 103.03, -10.19, 4.01, 
-205.00, 8.70, 150.36, -24.83, -6.69, 102.78, -10.21, 4.01, 
-204.00, 8.78, 149.32, -24.54, -6.68, 102.53, -10.22, 4.02, 
-203.00, 8.71, 149.45, -24.27, -6.67, 102.28, -10.24, 4.02, 
-202.00, 8.58, 149.18, -24.27, -6.67, 102.03, -10.26, 4.02, 
-201.00, 8.50, 148.35, -24.18, -6.66, 101.78, -10.27, 4.02, 
-200.00, 8.84, 148.95, -24.13, -6.65, 101.53, -10.29, 4.02, 
-199.00, 8.57, 147.61, -24.41, -6.64, 101.28, -10.31, 4.01, 
-198.00, 8.21, 147.30, -24.81, -6.63, 101.03, -10.32, 4.01, 
-197.00, 8.73, 147.24, -24.86, -6.63, 100.78, -10.34, 4.02, 
-196.00, 8.66, 146.71, -24.26, -6.62, 100.53, -10.36, 4.02, 
-195.00, 8.78, 147.94, -24.74, -6.61, 100.28, -10.37, 4.02, 
-194.00, 8.51, 146.66, -24.95, -6.60, 100.03, -10.39, 4.02, 
-193.00, 8.54, 147.09, -24.99, -6.60, 99.78, -10.41, 4.01, 
-192.00, 8.55, 147.07, -25.22, -6.59, 99.53, -10.42, 4.01, 
-191.00, 8.31, 145.62, -24.80, -6.58, 99.28, -10.44, 4.02, 
-190.00, 8.47, 146.13, -24.68, -6.57, 99.03, -10.46, 4.02, 
-189.00, 8.48, 144.89, -25.19, -6.56, 98.78, -10.47, 4.02, 
-188.00, 8.30, 145.34, -25.45, -6.56, 98.53, -10.49, 4.01, 
-187.00, 8.57, 146.22, -25.42, -6.55, 98.28, -10.51, 4.02, 
-186.00, 8.32, 144.69, -24.84, -6.54, 98.02, -10.52, 4.02, 
-185.00, 8.42, 145.14, -24.90, -6.53, 97.77, -10.54, 4.02, 
-184.00, 8.56, 144.29, -24.72, -6.52, 97.52, -10.56, 4.02, 
-183.00, 8.63, 143.82, -24.66, -6.52, 97.27, -10.57, 4.02, 
-182.00, 8.82, 144.00, -24.67, -6.51, 97.02, -10.59, 4.02, 
-181.00, 8.79, 142.79, -24.95, -6.50, 96.77, -10.61, 4.02, 
-180.00, 8.82, 143.46, -25.54, -6.49, 96.51, -10.62, 4.02, 
-179.00, 9.07, 142.55, -25.02, -6.48, 96.26, -10.64, 4.02, 
-178.00, 8.71, 143.52, -25.44, -6.48, 96.01, -10.66, 4.02, 
-177.00, 8.71, 143.46, -25.11, -6.47, 95.76, -10.67, 4.02, 
-176.00, 8.68, 142.53, -25.37, -6.46, 95.50, -10.69, 4.02, 
-175.00, 8.57, 143.19, -25.26, -6.45, 95.25, -10.71, 4.02, 
-174.00, 8.63, 141.59, -25.49, -6.44, 95.00, -10.73, 4.02, 
-173.00, 8.35, 142.99, -25.63, -6.44, 94.75, -10.74, 4.02, 
-172.00, 8.39, 140.63, -25.56, -6.43, 94.49, -10.76, 4.02, 
-171.00, 8.53, 142.16, -25.54, -6.42, 94.24, -10.78, 4.02, 
-170.00, 8.63, 140.77, -25.55, -6.41, 93.99, -10.79, 4.02, 
-169.00, 8.49, 139.94, -25.80, -6.40, 93.73, -10.81, 4.03, 
-168.00, 8.71, 140.18, -25.78, -6.39, 93.48, -10.83, 4.03, 
-167.00, 8.54, 138.92, -25.86, -6.39, 93.23, -10.84, 4.03, 
-166.00, 8.44, 140.60, -25.46, -6.38, 92.97, -10.86, 4.02, 
-165.00, 8.75, 139.54, -25.64, -6.37, 92.72, -10.88, 4.02, 
-164.00, 8.41, 140.65, -26.04, -6.36, 92.47, -10.90, 4.03, 
-163.00, 8.69, 139.47, -25.48, -6.35, 92.21, -10.91, 4.03, 
-162.00, 8.47, 139.07, -25.43, -6.35, 91.96, -10.93, 4.02, 
-161.00, 8.45, 138.75, -25.71, -6.34, 91.70, -10.95, 4.03, 
-160.00, 8.49, 137.43, -25.95, -6.33, 91.45, -10.96, 4.03, 
-159.00, 8.48, 138.92, -25.74, -6.32, 91.19, -10.98, 4.02, 
-158.00, 8.80, 137.84, -26.22, -6.31, 90.94, -11.00, 4.03, 
-157.00, 8.98, 137.17, -25.88, -6.30, 90.69, -11.01, 4.03, 
-156.00, 8.92, 137.69, -25.59, -6.30, 90.43, -11.03, 4.02, 
-155.00, 9.14, 136.05, -25.59, -6.29, 90.18, -11.05, 4.03, 
-154.00, 9.00, 137.06, -25.34, -6.28, 89.92, -11.07, 4.03, 
-153.00, 8.87, 136.12, -25.33, -6.27, 89.67, -11.08, 4.03, 
-152.00, 8.97, 137.43, -25.02, -6.26, 89.41, -11.10, 4.02, 
-151.00, 9.13, 137.07, -24.90, -6.26, 89.16, -11.12, 4.03, 
-150.00, 9.00, 136.40, -25.31, -6.25, 88.90, -11.13, 4.03, 
-149.00, 9.11, 137.05, -25.20, -6.24, 88.64, -11.15, 4.03, 
-148.00, 9.06, 134.88, -25.39, -6.23, 88.39, -11.17, 4.03, 
-147.00, 9.21, 136.04, -24.78, -6.22, 88.13, -11.19, 4.03, 
-146.00, 9.20, 135.21, -25.59, -6.21, 87.88, -11.20, 4.03, 
-145.00, 9.30, 135.88, -25.88, -6.21, 87.62, -11.22, 4.03, 
-144.00, 9.21, 135.67, -25.59, -6.20, 87.37, -11.24, 4.03, 
-143.00, 9.23, 134.39, -25.57, -6.19, 87.11, -11.26, 4.03, 
-142.00, 9.37, 135.27, -24.95, -6.18, 86.85, -11.27, 4.03, 
-141.00, 9.19, 132.78, -25.07, -6.17, 86.60, -11.29, 4.03, 
-140.00, 9.20, 133.97, -25.53, -6.16, 86.34, -11.31, 4.03, 
-139.00, 9.40, 133.02, -26.11, -6.16, 86.08, -11.32, 4.03, 
-138.00, 9.16, 134.03, -25.66, -6.15, 85.83, -11.34, 4.03, 
-137.00, 9.40, 133.86, -25.62, -6.14, 85.57, -11.36, 4.03, 
-136.00, 9.17, 131.52, -25.77, -6.13, 85.31, -11.38, 4.03, 
-135.00, 9.48, 133.09, -25.56, -6.12, 85.06, -11.39, 4.03, 
-134.00, 9.32, 131.49, -25.42, -6.11, 84.80, -11.41, 4.03, 
-133.00, 9.21, 133.20, -25.49, -6.11, 84.54, -11.43, 4.03, 
-132.00, 9.76, 132.13, -25.99, -6.10, 84.29, -11.45, 4.04, 
-131.00, 9.60, 131.57, -25.87, -6.09, 84.03, -11.46, 4.03, 
-130.00, 9.46, 131.59, -25.73, -6.08, 83.77, -11.48, 4.03, 
-129.00, 9.49, 130.39, -25.98, -6.07, 83.51, -11.50, 4.04, 
-128.00, 9.54, 131.47, -25.31, -6.06, 83.26, -11.52, 4.03, 
-127.00, 9.56, 129.46, -25.16, -6.06, 83.00, -11.53, 4.04, 
-126.00, 9.34, 132.20, -26.05, -6.05, 82.74, -11.55, 4.03, 
-125.00, 9.15, 129.57, -25.87, -6.04, 82.48, -11.57, 4.03, 
-124.00, 9.07, 129.88, -25.88, -6.03, 82.23, -11.59, 4.04, 
-123.00, 9.25, 130.03, -25.84, -6.02, 81.97, -11.60, 4.03, 
-122.00, 9.19, 129.93, -25.87, -6.01, 81.71, -11.62, 4.04, 
-121.00, 8.97, 130.73, -26.17, -6.01, 81.45, -11.64, 4.03, 
-120.00, 9.11, 128.42, -25.91, -6.00, 81.19, -11.66, 4.04, 
-119.00, 8.86, 129.40, -25.81, -5.99, 80.94, -11.67, 4.04, 
-118.00, 8.83, 127.38, -25.38, -5.98, 80.68, -11.69, 4.04, 
-117.00, 8.68, 129.11, -25.64, -5.97, 80.42, -11.71, 4.04, 
-116.00, 8.95, 128.02, -25.02, -5.96, 80.16, -11.73, 4.04, 
-115.00, 8.84, 128.33, -25.69, -5.95, 79.90, -11.74, 4.04, 
-114.00, 8.81, 127.21, -25.77, -5.95, 79.64, -11.76, 4.04, 
-113.00, 8.80, 126.92, -25.83, -5.94, 79.38, -11.78, 4.04, 
-112.00, 8.82, 127.96, -25.48, -5.93, 79.13, -11.80, 4.04, 
-111.00, 8.59, 126.98, -25.78, -5.92, 78.87, -11.82, 4.04, 
-110.00, 8.88, 127.78, -26.04, -5.91, 78.61, -11.83, 4.04, 
-109.00, 9.14, 124.86, -26.06, -5.90, 78.35, -11.85, 4.04, 
-108.00, 9.07, 126.24, -26.25, -5.90, 78.09, -11.87, 4.04, 
-107.00, 9.03, 125.23, -25.76, -5.89, 77.83, -11.89, 4.04, 
-106.00, 9.03, 126.13, -26.03, -5.88, 77.57, -11.90, 4.04, 
-105.00, 8.90, 125.47, -26.40, -5.87, 77.31, -11.92, 4.04, 
-104.00, 8.99, 124.23, -26.70, -5.86, 77.05, -11.94, 4.04, 
-103.00, 8.80, 125.57, -26.63, -5.85, 76.79, -11.96, 4.04, 
-102.00, 8.84, 124.53, -26.60, -5.84, 76.53, -11.98, 4.04, 
-101.00, 8.43, 125.49, -25.99, -5.84, 76.27, -11.99, 4.04, 
-100.00, 8.69, 123.25, -26.06, -5.83, 76.01, -12.01, 4.04, 
-99.00, 8.74, 124.42, -26.35, -5.82, 75.75, -12.03, 4.04, 
-98.00, 8.80, 124.16, -26.67, -5.81, 75.49, -12.05, 4.04, 
-97.00, 8.78, 123.21, -26.61, -5.80, 75.23, -12.06, 4.04, 
-96.00, 8.77, 124.25, -26.39, -5.79, 74.97, -12.08, 4.04, 
-95.00, 8.84, 121.76, -26.68, -5.78, 74.71, -12.10, 4.04, 
-94.00, 8.76, 123.34, -26.89, -5.78, 74.45, -12.12, 4.04, 
-93.00, 8.90, 122.53, -26.43, -5.77, 74.19, -12.14, 4.04, 
-92.00, 8.94, 122.91, -26.87, -5.76, 73.93, -12.15, 4.04, 
-91.00, 9.16, 121.41, -26.09, -5.75, 73.67, -12.17, 4.04, 
-90.00, 8.93, 121.83, -26.13, -5.74, 73.41, -12.19, 4.04, 
-89.00, 8.94, 122.54, -26.07, -5.73, 73.15, -12.21, 4.04, 
-88.00, 8.77, 120.13, -26.24, -5.72, 72.89, -12.23, 4.04, 
-87.00, 8.77, 121.10, -26.14, -5.72, 72.63, -12.24, 4.04, 
-86.00, 8.87, 121.11, -26.47, -5.71, 72.37, -12.26, 4.04, 
-85.00, 8.70, 120.72, -26.99, -5.70, 72.11, -12.28, 4.04, 
-84.00, 8.35, 120.27, -26.43, -5.69, 71.85, -12.30, 4.04, 
-83.00, 8.61, 119.21, -26.82, -5.68, 71.59, -12.32, 4.04, 
-82.00, 8.71, 120.59, -27.05, -5.67, 71.33, -12.33, 4.04, 
-81.00, 8.67, 118.67, -26.54, -5.66, 71.06, -12.35, 4.04, 
-80.00, 8.89, 119.57, -26.61, -5.66, 70.80, -12.37, 4.04, 
-79.00, 9.18, 119.55, -26.72, -5.65, 70.54, -12.39, 4.04, 
-78.00, 8.97, 118.08, -26.83, -5.64, 70.28, -12.41, 4.04, 
-77.00, 9.05, 118.66, -26.94, -5.63, 70.02, -12.42, 4.04, 
-76.00, 9.04, 118.25, -27.24, -5.62, 69.76, -12.44, 4.04, 
-75.00, 8.85, 118.67, -27.36, -5.61, 69.50, -12.46, 4.04, 
-74.00, 8.83, 117.86, -27.23, -5.60, 69.23, -12.48, 4.04, 
-73.00, 8.90, 118.13, -26.87, -5.59, 68.97, -12.50, 4.04, 
-72.00, 9.05, 118.14, -26.64, -5.59, 68.71, -12.51, 4.04, 
-71.00, 8.84, 116.79, -26.83, -5.58, 68.45, -12.53, 4.04, 
-70.00, 9.06, 117.85, -26.72, -5.57, 68.19, -12.55, 4.04, 
-69.00, 9.09, 115.99, -26.48, -5.56, 67.93, -12.57, 4.04, 
-68.00, 9.03, 116.36, -26.80, -5.55, 67.66, -12.59, 4.04, 
-67.00, 8.95, 116.13, -26.90, -5.54, 67.40, -12.61, 4.04, 
-66.00, 8.79, 116.32, -27.19, -5.53, 67.14, -12.62, 4.04, 
-65.00, 8.82, 115.57, -27.30, -5.53, 66.88, -12.64, 4.04, 
-64.00, 8.89, 114.53, -27.14, -5.52, 66.62, -12.66, 4.04, 
-63.00, 8.78, 115.76, -27.32, -5.51, 66.35, -12.68, 4.04, 
-62.00, 9.07, 113.71, -26.94, -5.50, 66.09, -12.70, 4.04, 
-61.00, 8.98, 114.59, -26.77, -5.49, 65.83, -12.72, 4.04, 
-60.00, 9.06, 114.44, -26.68, -5.48, 65.57, -12.73, 4.04, 
-59.00, 9.06, 114.99, -27.32, -5.47, 65.30, -12.75, 4.05, 
-58.00, 9.16, 113.85, -27.19, -5.46, 65.04, -12.77, 4.04, 
-57.00, 9.18, 113.51, -26.87, -5.46, 64.78, -12.79, 4.04, 
-56.00, 9.31, 114.07, -27.49, -5.45, 64.52, -12.81, 4.04, 
-55.00, 9.17, 112.52, -27.54, -5.44, 64.25, -12.83, 4.04, 
-54.00, 9.05, 113.89, -26.94, -5.43, 63.99, -12.84, 4.04, 
-53.00, 8.72, 112.24, -26.64, -5.42, 63.73, -12.86, 4.04, 
-52.00, 8.78, 112.37, -26.65, -5.41, 63.47, -12.88, 4.04, 
-51.00, 8.80, 112.75, -26.60, -5.40, 63.20, -12.90, 4.04, 
-50.00, 8.75, 111.64, -27.08, -5.39, 62.94, -12.92, 4.04, 
-49.00, 9.04, 112.71, -26.63, -5.39, 62.68, -12.94, 4.04, 
-48.00, 9.23, 110.89, -27.13, -5.38, 62.42, -12.95, 4.04, 
-47.00, 8.94, 111.78, -26.99, -5.37, 62.15, -12.97, 4.04, 
-46.00, 9.12, 110.78, -26.74, -5.36, 61.89, -12.99, 4.04, 
-45.00, 9.09, 111.33, -26.96, -5.35, 61.63, -13.01, 4.04, 
-44.00, 9.29, 110.54, -26.58, -5.34, 61.36, -13.03, 4.04, 
-43.00, 9.11, 109.64, -26.48, -5.33, 61.10, -13.05, 4.04, 
-42.00, 9.06, 110.78, -26.76, -5.32, 60.84, -13.07, 4.04, 
-41.00, 9.09, 109.37, -26.44, -5.32, 60.57, -13.08, 4.04, 
-40.00, 9.31, 110.04, -27.33, -5.31, 60.31, -13.10, 4.04, 
-39.00, 9.16, 109.52, -27.27, -5.30, 60.05, -13.12, 4.05, 
-38.00, 9.35, 108.83, -27.56, -5.29, 59.78, -13.14, 4.04, 
-37.00, 9.16, 109.69, -27.10, -5.28, 59.52, -13.16, 4.05, 
-36.00, 9.30, 108.87, -26.92, -5.27, 59.26, -13.18, 4.05, 
-35.00, 9.25, 108.99, -26.76, -5.26, 58.99, -13.20, 4.05, 
-34.00, 9.18, 108.40, -26.72, -5.25, 58.73, -13.21, 4.04, 
-33.00, 9.18, 107.91, -26.50, -5.25, 58.47, -13.23, 4.04, 
-32.00, 9.37, 106.91, -26.69, -5.24, 58.20, -13.25, 4.04, 
-31.00, 9.12, 107.50, -27.05, -5.23, 57.94, -13.27, 4.05, 
-30.00, 9.38, 106.65, -26.90, -5.22, 57.68, -13.29, 4.05, 
-29.00, 9.20, 106.87, -27.13, -5.21, 57.41, -13.31, 4.05, 
-28.00, 9.35, 107.19, -27.28, -5.20, 57.15, -13.33, 4.05, 
-27.00, 9.45, 105.84, -27.32, -5.19, 56.88, -13.35, 4.05, 
-26.00, 9.11, 106.40, -27.72, -5.18, 56.62, -13.36, 4.05, 
-25.00, 9.30, 105.57, -27.45, -5.18, 56.36, -13.38, 4.05, 
-24.00, 9.38, 106.31, -27.54, -5.17, 56.09, -13.40, 4.05, 
-23.00, 9.75, 105.31, -27.53, -5.16, 55.83, -13.42, 4.05, 
-22.00, 9.57, 105.13, -27.76, -5.15, 55.57, -13.44, 4.05, 
-21.00, 9.68, 105.49, -27.97, -5.14, 55.30, -13.46, 4.05, 
-20.00, 9.70, 104.53, -27.64, -5.13, 55.04, -13.48, 4.05, 
-19.00, 9.70, 104.98, -27.49, -5.12, 54.77, -13.50, 4.05, 
-18.00, 9.84, 104.03, -27.25, -5.11, 54.51, -13.51, 4.05, 
-17.00, 9.76, 104.13, -27.34, -5.10, 54.25, -13.53, 4.05, 
-16.00, 9.69, 103.67, -27.01, -5.10, 53.98, -13.55, 4.05, 
-15.00, 9.54, 103.58, -27.40, -5.09, 53.72, -13.57, 4.05, 
-14.00, 9.87, 103.47, -27.08, -5.08, 53.45, -13.59, 4.05, 
-13.00, 9.60, 103.00, -27.88, -5.07, 53.19, -13.61, 4.05, 
-12.00, 9.64, 102.67, -27.51, -5.06, 52.92, -13.63, 4.05, 
-11.00, 9.94, 102.35, -27.22, -5.05, 52.66, -13.65, 4.05, 
-10.00, 9.85, 101.94, -27.20, -5.04, 52.40, -13.67, 4.05, 
-9.00, 9.99, 101.99, -27.44, -5.03, 52.13, -13.68, 4.05, 
-8.00, 10.09, 101.79, -27.55, -5.03, 51.87, -13.70, 4.05, 
-7.00, 9.78, 101.77, -27.43, -5.02, 51.60, -13.72, 4.05, 
-6.00, 9.63, 101.42, -27.60, -5.01, 51.34, -13.74, 4.05, 
-5.00, 9.88, 100.96, -27.42, -5.00, 51.07, -13.76, 4.05, 
-4.00, 9.68, 100.69, -27.28, -4.99, 50.81, -13.78, 4.05, 
-3.00, 9.83, 100.43, -27.75, -4.98, 50.55, -13.80, 4.05, 
-2.00, 9.66, 100.30, -28.07, -4.97, 50.28, -13.82, 4.05, 
-1.00, 9.78, 100.04, -27.79, -4.96, 50.02, -13.84, 4.05, 
0.00, 9.84, 99.87, -27.83, -4.95, 49.75, -13.86, 4.05, 
1.00, 9.49, 99.38, -27.99, -4.95, 49.49, -13.87, 4.05, 
2.00, 9.44, 99.39, -28.00, -4.94, 49.22, -13.89, 4.05, 
3.00, 9.68, 98.67, -28.18, -4.93, 48.96, -13.91, 4.05, 
4.00, 9.52, 98.27, -28.16, -4.92, 48.69, -13.93, 4.05, 
5.00, 9.70, 98.52, -28.31, -4.91, 48.43, -13.95, 4.05, 
6.00, 9.80, 98.23, -28.00, -4.90, 48.16, -13.97, 4.05, 
7.00, 9.66, 97.78, -28.02, -4.89, 47.90, -13.99, 4.05, 
8.00, 9.52, 97.19, -28.22, -4.88, 47.63, -14.01, 4.05, 
9.00, 9.69, 97.58, -28.33, -4.88, 47.37, -14.03, 4.05, 
10.00, 9.61, 97.34, -28.58, -4.87, 47.11, -14.05, 4.05, 
11.00, 9.92, 97.10, -28.38, -4.86, 46.84, -14.07, 4.05, 
12.00, 9.71, 96.04, -28.49, -4.85, 46.58, -14.09, 4.05, 
13.00, 9.92, 96.48, -28.60, -4.84, 46.31, -14.10, 4.05, 
14.00, 10.00, 96.18, -28.20, -4.83, 46.05, -14.12, 4.05, 
15.00, 10.20, 96.19, -28.49, -4.82, 45.78, -14.14, 4.05, 
16.00, 10.37, 95.67, -28.00, -4.81, 45.52, -14.16, 4.05, 
17.00, 10.30, 95.25, -28.38, -4.80, 45.25, -14.18, 4.05, 
18.00, 10.17, 95.37, -28.69, -4.80, 44.99, -14.20, 4.05, 
19.00, 10.11, 94.64, -28.42, -4.79, 44.72, -14.22, 4.05, 
20.00, 10.04, 95.13, -28.14, -4.78, 44.46, -14.24, 4.05, 
21.00, 9.96, 94.66, -27.93, -4.77, 44.19, -14.26, 4.05, 
22.00, 10.07, 94.33, -28.36, -4.76, 43.93, -14.28, 4.05, 
23.00, 9.99, 94.20, -28.40, -4.75, 43.66, -14.30, 4.05, 
24.00, 10.23, 93.43, -27.89, -4.74, 43.40, -14.32, 4.05, 
25.00, 10.06, 93.72, -27.96, -4.73, 43.13, -14.34, 4.05, 
26.00, 9.91, 93.18, -28.44, -4.72, 42.87, -14.36, 4.05, 
27.00, 9.81, 92.66, -28.08, -4.72, 42.60, -14.37, 4.04, 
28.00, 9.85, 92.60, -27.48, -4.71, 42.34, -14.39, 4.05, 
29.00, 9.83, 92.14, -27.63, -4.70, 42.07, -14.41, 4.04, 
30.00, 9.96, 92.58, -28.01, -4.69, 41.81, -14.43, 4.05, 
31.00, 9.98, 91.48, -27.82, -4.68, 41.54, -14.45, 4.04, 
32.00, 9.57, 91.51, -28.28, -4.67, 41.28, -14.47, 4.05, 
33.00, 9.98, 90.76, -27.44, -4.66, 41.02, -14.49, 4.05, 
34.00, 10.16, 90.82, -27.75, -4.65, 40.75, -14.51, 4.04, 
35.00, 9.98, 90.91, -27.84, -4.65, 40.49, -14.53, 4.05, 
36.00, 10.04, 90.17, -27.97, -4.64, 40.22, -14.55, 4.04, 
37.00, 9.91, 91.22, -28.00, -4.63, 39.96, -14.57, 4.05, 
38.00, 10.29, 90.15, -27.92, -4.62, 39.69, -14.59, 4.04, 
39.00, 9.94, 90.05, -28.21, -4.61, 39.43, -14.61, 4.04, 
40.00, 10.41, 89.72, -28.59, -4.60, 39.16, -14.63, 4.04, 
41.00, 10.23, 88.87, -28.90, -4.59, 38.90, -14.65, 4.05, 
42.00, 10.01, 89.72, -28.42, -4.58, 38.63, -14.67, 4.04, 
43.00, 10.29, 88.38, -28.54, -4.57, 38.37, -14.69, 4.04, 
44.00, 10.32, 88.36, -28.74, -4.57, 38.10, -14.71, 4.04, 
45.00, 10.22, 88.09, -28.94, -4.56, 37.84, -14.73, 4.04, 
46.00, 10.38, 87.83, -28.55, -4.55, 37.57, -14.74, 4.04, 
47.00, 9.99, 88.67, -28.32, -4.54, 37.31, -14.76, 4.04, 
48.00, 10.11, 87.51, -28.17, -4.53, 37.04, -14.78, 4.04, 
49.00, 10.10, 88.30, -28.42, -4.52, 36.78, -14.80, 4.04, 
50.00, 9.89, 87.05, -28.85, -4.51, 36.51, -14.82, 4.04, 
51.00, 9.97, 86.69, -29.01, -4.50, 36.25, -14.84, 4.04, 
52.00, 10.02, 86.78, -28.79, -4.50, 35.98, -14.86, 4.04, 
53.00, 10.32, 85.45, -28.81, -4.49, 35.72, -14.88, 4.04, 
54.00, 10.17, 86.46, -28.18, -4.48, 35.45, -14.90, 4.04, 
55.00, 10.25, 85.59, -28.20, -4.47, 35.19, -14.92, 4.04, 
56.00, 10.12, 85.90, -28.75, -4.46, 34.92, -14.94, 4.04, 
57.00, 10.28, 85.51, -28.85, -4.45, 34.66, -14.96, 4.04, 
58.00, 10.08, 84.75, -28.78, -4.44, 34.39, -14.98, 4.04, 
59.00, 10.12, 85.70, -28.55, -4.43, 34.13, -15.00, 4.04, 
60.00, 10.28, 84.30, -29.03, -4.42, 33.87, -15.02, 4.04, 
61.00, 10.06, 85.18, -29.56, -4.42, 33.60, -15.04, 4.04, 
62.00, 10.09, 83.74, -29.62, -4.41, 33.34, -15.06, 4.04, 
63.00, 9.82, 83.49, -29.18, -4.40, 33.07, -15.08, 4.04, 
64.00, 9.79, 83.76, -29.20, -4.39, 32.81, -15.10, 4.04, 
65.00, 9.93, 82.68, -29.27, -4.38, 32.54, -15.12, 4.04, 
66.00, 9.92, 84.22, -29.30, -4.37, 32.28, -15.14, 4.04, 
67.00, 10.15, 83.59, -28.77, -4.36, 32.01, -15.16, 4.04, 
68.00, 10.07, 82.56, -29.31, -4.35, 31.75, -15.18, 4.04, 
69.00, 10.18, 83.55, -29.45, -4.35, 31.48, -15.20, 4.04, 
70.00, 10.39, 81.81, -28.84, -4.34, 31.22, -15.22, 4.04, 
71.00, 10.34, 81.82, -28.71, -4.33, 30.95, -15.24, 4.04, 
72.00, 10.05, 81.26, -28.87, -4.32, 30.69, -15.26, 4.04, 
73.00, 10.17, 81.08, -28.92, -4.31, 30.43, -15.28, 4.04, 
74.00, 10.09, 82.30, -28.97, -4.30, 30.16, -15.30, 4.04, 
75.00, 10.22, 80.78, -28.93, -4.29, 29.90, -15.32, 4.04, 
76.00, 10.40, 80.72, -28.95, -4.28, 29.63, -15.34, 4.04, 
77.00, 10.46, 81.29, -28.92, -4.28, 29.37, -15.36, 4.04, 
78.00, 10.62, 79.32, -28.98, -4.27, 29.10, -15.38, 4.04, 
79.00, 10.50, 81.33, -29.28, -4.26, 28.84, -15.40, 4.04, 
80.00, 10.58, 80.16, -29.06, -4.25, 28.57, -15.42, 4.04, 
81.00, 10.46, 79.52, -29.21, -4.24, 28.31, -15.44, 4.04, 
82.00, 10.74, 79.71, -29.35, -4.23, 28.05, -15.46, 4.04, 
83.00, 10.79, 78.46, -29.01, -4.22, 27.78, -15.48, 4.04, 
84.00, 10.76, 79.72, -28.62, -4.21, 27.52, -15.50, 4.04, 
85.00, 10.62, 78.87, -29.18, -4.21, 27.25, -15.52, 4.04, 
86.00, 10.56, 78.06, -29.20, -4.20, 26.99, -15.54, 4.04, 
87.00, 10.35, 78.48, -28.95, -4.19, 26.72, -15.56, 4.04, 
88.00, 10.88, 77.64, -29.09, -4.18, 26.46, -15.58, 4.04, 
89.00, 10.82, 78.94, -28.73, -4.17, 26.20, -15.60, 4.04, 
90.00, 10.47, 77.66, -29.09, -4.16, 25.93, -15.62, 4.04, 
91.00, 10.59, 76.84, -29.02, -4.15, 25.67, -15.64, 4.04, 
92.00, 10.69, 77.47, -29.16, -4.14, 25.40, -15.66, 4.04, 
93.00, 11.08, 76.00, -29.29, -4.14, 25.14, -15.68, 4.04, 
94.00, 10.67, 77.69, -29.01, -4.13, 24.88, -15.70, 4.04, 
95.00, 10.52, 77.10, -28.94, -4.12, 24.61, -15.72, 4.04, 
96.00, 10.87, 75.83, -29.08, -4.11, 24.35, -15.74, 4.04, 
97.00, 10.58, 76.31, -28.87, -4.10, 24.08, -15.76, 4.04, 
98.00, 10.77, 74.46, -29.18, -4.09, 23.82, -15.78, 4.04, 
99.00, 10.65, 75.84, -29.48, -4.08, 23.56, -15.80, 4.04, 
100.00, 10.84, 75.51, -29.26, -4.07, 23.29, -15.82, 4.04, 
101.00, 10.94, 73.86, -28.86, -4.07, 23.03, -15.84, 4.04, 
102.00, 10.99, 74.84, -28.63, -4.06, 22.77, -15.86, 4.04, 
103.00, 11.03, 74.07, -28.93, -4.05, 22.50, -15.88, 4.04, 
104.00, 10.96, 74.25, -29.16, -4.04, 22.24, -15.90, 4.04, 
105.00, 10.70, 74.50, -29.11, -4.03, 21.97, -15.92, 4.04, 
106.00, 10.68, 72.79, -28.68, -4.02, 21.71, -15.94, 4.04, 
107.00, 11.10, 73.60, -28.81, -4.01, 21.45, -15.96, 4.04, 
108.00, 11.11, 72.13, -28.79, -4.00, 21.18, -15.98, 4.04, 
109.00, 10.88, 73.46, -29.34, -4.00, 20.92, -16.00, 4.04, 
110.00, 10.97, 73.32, -29.33, -3.99, 20.66, -16.02, 4.04, 
111.00, 10.52, 71.37, -29.55, -3.98, 20.39, -16.04, 4.04, 
112.00, 10.76, 72.28, -29.46, -3.97, 20.13, -16.06, 4.04, 
113.00, 10.90, 70.63, -29.43, -3.96, 19.87, -16.08, 4.04, 
114.00, 10.67, 71.96, -29.77, -3.95, 19.60, -16.10, 4.04, 
115.00, 10.67, 71.09, -29.66, -3.94, 19.34, -16.13, 4.03, 
116.00, 10.51, 69.92, -29.63, -3.94, 19.08, -16.15, 4.03, 
117.00, 10.64, 71.23, -29.45, -3.93, 18.81, -16.17, 4.04, 
118.00, 10.46, 70.82, -28.97, -3.92, 18.55, -16.19, 4.03, 
119.00, 10.72, 71.68, -29.41, -3.91, 18.29, -16.21, 4.04, 
120.00, 10.64, 69.41, -29.29, -3.90, 18.03, -16.23, 4.03, 
121.00, 10.61, 69.59, -29.10, -3.89, 17.76, -16.25, 4.03, 
122.00, 10.87, 69.39, -29.19, -3.88, 17.50, -16.27, 4.04, 
123.00, 10.50, 69.54, -29.60, -3.87, 17.24, -16.29, 4.03, 
124.00, 10.43, 70.12, -29.18, -3.87, 16.97, -16.31, 4.04, 
125.00, 10.41, 68.61, -29.70, -3.86, 16.71, -16.33, 4.03, 
126.00, 10.63, 69.50, -29.75, -3.85, 16.45, -16.35, 4.03, 
127.00, 10.64, 67.49, -29.38, -3.84, 16.19, -16.37, 4.04, 
128.00, 10.69, 69.48, -30.13, -3.83, 15.92, -16.39, 4.03, 
129.00, 10.66, 67.71, -29.73, -3.82, 15.66, -16.41, 4.03, 
130.00, 10.51, 67.77, -30.26, -3.81, 15.40, -16.43, 4.03, 
131.00, 10.46, 67.49, -30.13, -3.81, 15.14, -16.45, 4.03, 
132.00, 10.53, 65.81, -30.01, -3.80, 14.87, -16.47, 4.03, 
133.00, 10.50, 68.49, -30.83, -3.79, 14.61, -16.49, 4.03, 
134.00, 10.51, 66.83, -30.37, -3.78, 14.35, -16.52, 4.03, 
135.00, 10.63, 67.73, -30.49, -3.77, 14.09, -16.54, 4.03, 
136.00, 10.96, 65.69, -30.50, -3.76, 13.83, -16.56, 4.03, 
137.00, 10.78, 66.50, -30.73, -3.75, 13.56, -16.58, 4.03, 
138.00, 10.70, 66.19, -30.62, -3.75, 13.30, -16.60, 4.03, 
139.00, 10.71, 65.10, -30.51, -3.74, 13.04, -16.62, 4.03, 
140.00, 10.75, 65.08, -30.32, -3.73, 12.78, -16.64, 4.03, 
141.00, 10.89, 63.51, -29.78, -3.72, 12.52, -16.66, 4.03, 
142.00, 10.82, 66.16, -30.57, -3.71, 12.25, -16.68, 4.03, 
143.00, 10.58, 64.72, -30.61, -3.70, 11.99, -16.70, 4.03, 
144.00, 10.47, 64.70, -30.61, -3.69, 11.73, -16.72, 4.03, 
145.00, 10.92, 63.65, -30.31, -3.69, 11.47, -16.74, 4.03, 
146.00, 10.88, 63.46, -30.57, -3.68, 11.21, -16.76, 4.03, 
147.00, 10.74, 63.60, -30.77, -3.67, 10.95, -16.78, 4.03, 
148.00, 10.74, 61.97, -30.47, -3.66, 10.68, -16.80, 4.03, 
149.00, 10.87, 62.81, -30.67, -3.65, 10.42, -16.83, 4.03, 
150.00, 10.63, 61.85, -30.23, -3.64, 10.16, -16.85, 4.03, 
151.00, 10.81, 63.32, -30.39, -3.63, 9.90, -16.87, 4.02, 
152.00, 10.86, 60.67, -30.86, -3.63, 9.64, -16.89, 4.03, 
153.00, 11.00, 61.62, -30.42, -3.62, 9.38, -16.91, 4.02, 
154.00, 10.83, 62.27, -30.05, -3.61, 9.12, -16.93, 4.03, 
155.00, 10.96, 62.03, -31.00, -3.60, 8.86, -16.95, 4.02, 
156.00, 10.89, 61.41, -30.49, -3.59, 8.59, -16.97, 4.03, 
157.00, 10.64, 59.77, -30.68, -3.58, 8.33, -16.99, 4.02, 
158.00, 10.79, 61.80, -30.97, -3.58, 8.07, -17.01, 4.03, 
159.00, 10.65, 59.89, -30.75, -3.57, 7.81, -17.03, 4.02, 
160.00, 10.85, 60.39, -30.52, -3.56, 7.55, -17.06, 4.03, 
161.00, 10.90, 58.80, -30.51, -3.55, 7.29, -17.08, 4.02, 
162.00, 11.18, 60.76, -30.70, -3.54, 7.03, -17.10, 4.03, 
163.00, 11.17, 59.44, -30.28, -3.53, 6.77, -17.12, 4.02, 
164.00, 11.13, 58.83, -30.64, -3.52, 6.51, -17.14, 4.03, 
165.00, 11.03, 58.77, -30.64, -3.52, 6.25, -17.16, 4.02, 
166.00, 11.08, 59.17, -30.20, -3.51, 5.99, -17.18, 4.03, 
167.00, 11.06, 59.32, -29.61, -3.50, 5.73, -17.20, 4.02, 
168.00, 11.20, 57.40, -29.97, -3.49, 5.47, -17.22, 4.03, 
169.00, 11.20, 58.56, -30.32, -3.48, 5.21, -17.24, 4.02, 
170.00, 11.09, 57.52, -30.53, -3.47, 4.95, -17.26, 4.02, 
171.00, 11.18, 57.87, -30.28, -3.47, 4.69, -17.29, 4.03, 
172.00, 10.96, 56.24, -29.99, -3.46, 4.43, -17.31, 4.02, 
173.00, 11.12, 57.95, -30.45, -3.45, 4.17, -17.33, 4.03, 
174.00, 11.01, 56.81, -30.16, -3.44, 3.91, -17.35, 4.02, 
175.00, 11.12, 56.59, -30.32, -3.43, 3.65, -17.37, 4.02, 
176.00, 11.31, 56.87, -30.80, -3.42, 3.39, -17.39, 4.02, 
177.00, 11.27, 57.02, -30.58, -3.42, 3.13, -17.41, 4.02, 
178.00, 11.41, 55.89, -30.72, -3.41, 2.87, -17.43, 4.02, 
179.00, 11.32, 55.36, -30.94, -3.40, 2.61, -17.45, 4.02, 
180.00, 11.18, 55.33, -30.98, -3.39, 2.35, -17.48, 4.02, 
181.00, 10.92, 53.84, -30.51, -3.38, 2.09, -17.50, 4.02, 
182.00, 11.05, 55.23, -30.62, -3.37, 1.83, -17.52, 4.02, 
183.00, 11.06, 53.87, -30.87, -3.37, 1.57, -17.54, 4.02, 
184.00, 10.86, 54.25, -31.08, -3.36, 1.32, -17.56, 4.02, 
185.00, 11.04, 54.11, -31.09, -3.35, 1.06, -17.58, 4.02, 
186.00, 11.22, 53.17, -31.34, -3.34, 0.80, -17.60, 4.02, 
187.00, 11.09, 53.43, -31.38, -3.33, 0.54, -17.62, 4.02, 
188.00, 11.07, 53.40, -31.14, -3.32, 0.28, -17.65, 4.02, 
189.00, 11.34, 53.39, -30.81, -3.32, 0.02, -17.67, 4.02, 
190.00, 11.28, 52.60, -30.61, -3.31, -0.24, -17.69, 4.02, 
191.00, 11.01, 53.37, -30.82, -3.30, -0.49, -17.71, 4.02, 
192.00, 10.99, 51.44, -30.65, -3.29, -0.75, -17.73, 4.02, 
193.00, 10.88, 52.27, -30.76, -3.28, -1.01, -17.75, 4.02, 
194.00, 11.09, 50.76, -30.85, -3.27, -1.27, -17.77, 4.02, 
195.00, 11.25, 50.88, -31.10, -3.27, -1.53, -17.79, 4.02, 
196.00, 11.11, 52.25, -31.40, -3.26, -1.78, -17.82, 4.02, 
197.00, 10.95, 50.06, -30.75, -3.25, -2.04, -17.84, 4.02, 
198.00, 10.65, 51.62, -30.98, -3.24, -2.30, -17.86, 4.02, 
199.00, 10.78, 49.65, -30.99, -3.23, -2.56, -17.88, 4.02, 
200.00, 10.99, 50.83, -31.22, -3.22, -2.82, -17.90, 4.01, 
201.00, 10.93, 50.82, -31.13, -3.22, -3.07, -17.92, 4.02, 
202.00, 10.83, 50.14, -30.88, -3.21, -3.33, -17.94, 4.02, 
203.00, 10.77, 50.72, -30.98, -3.20, -3.59, -17.96, 4.01, 
204.00, 10.91, 49.89, -31.07, -3.19, -3.84, -17.99, 4.01, 
205.00, 11.08, 49.39, -30.89, -3.18, -4.10, -18.01, 4.01, 
206.00, 10.98, 48.84, -31.15, -3.18, -4.36, -18.03, 4.01, 
207.00, 11.04, 49.11, -30.87, -3.17, -4.62, -18.05, 4.01, 
208.00, 10.73, 47.74, -31.17, -3.16, -4.87, -18.07, 4.01, 
209.00, 10.62, 48.76, -31.11, -3.15, -5.13, -18.09, 4.01, 
210.00, 10.91, 47.17, -31.20, -3.14, -5.39, -18.11, 4.01, 
211.00, 11.06, 48.01, -30.94, -3.14, -5.64, -18.14, 4.01, 
212.00, 11.11, 46.62, -30.97, -3.13, -5.90, -18.16, 4.01, 
213.00, 11.14, 47.30, -31.06, -3.12, -6.16, -18.18, 4.01, 
214.00, 11.16, 47.48, -30.61, -3.11, -6.41, -18.20, 4.01, 
215.00, 11.14, 46.64, -30.56, -3.10, -6.67, -18.22, 4.01, 
216.00, 11.09, 46.26, -31.24, -3.09, -6.92, -18.24, 4.01, 
217.00, 11.05, 45.71, -30.77, -3.09, -7.18, -18.27, 4.01, 
218.00, 11.33, 46.60, -31.20, -3.08, -7.44, -18.29, 4.01, 
219.00, 10.94, 44.86, -30.65, -3.07, -7.69, -18.31, 4.01, 
220.00, 11.27, 45.95, -30.98, -3.06, -7.95, -18.33, 4.01, 
221.00, 10.80, 44.88, -30.59, -3.05, -8.20, -18.35, 4.00, 
222.00, 11.39, 45.65, -31.14, -3.05, -8.46, -18.37, 4.01, 
223.00, 11.29, 44.37, -31.36, -3.04, -8.71, -18.39, 4.01, 
224.00, 11.25, 44.57, -31.10, -3.03, -8.97, -18.42, 4.01, 
225.00, 11.27, 44.02, -30.94, -3.02, -9.22, -18.44, 4.01, 
226.00, 11.08, 45.08, -31.08, -3.01, -9.48, -18.46, 4.00, 
227.00, 11.07, 44.55, -31.13, -3.01, -9.73, -18.48, 4.00, 
228.00, 11.10, 43.24, -31.65, -3.00, -9.99, -18.50, 4.01, 
229.00, 10.99, 43.56, -31.75, -2.99, -10.24, -18.52, 4.00, 
230.00, 11.03, 42.43, -31.33, -2.98, -10.50, -18.55, 4.00, 
231.00, 11.11, 43.21, -31.47, -2.97, -10.75, -18.57, 4.00, 
232.00, 10.87, 42.25, -31.67, -2.97, -11.01, -18.59, 4.00, 
233.00, 10.93, 42.39, -31.81, -2.96, -11.26, -18.61, 4.00, 
234.00, 10.76, 41.37, -31.72, -2.95, -11.52, -18.63, 4.00, 
235.00, 10.97, 41.74, -31.65, -2.94, -11.77, -18.66, 4.00, 
236.00, 11.07, 41.63, -31.34, -2.93, -12.02, -18.68, 4.00, 
237.00, 11.26, 41.41, -31.56, -2.93, -12.28, -18.70, 4.00, 
238.00, 11.62, 41.33, -31.77, -2.92, -12.53, -18.72, 4.00, 
239.00, 11.07, 41.24, -31.27, -2.91, -12.78, -18.74, 4.00, 
240.00, 11.30, 41.27, -31.11, -2.90, -13.04, -18.76, 4.00, 
241.00, 11.63, 40.62, -31.43, -2.90, -13.29, -18.79, 4.00, 
242.00, 11.56, 40.50, -31.34, -2.89, -13.54, -18.81, 4.00, 
243.00, 11.33, 40.69, -30.84, -2.88, -13.80, -18.83, 4.00, 
244.00, 11.61, 39.87, -30.76, -2.87, -14.05, -18.85, 4.00, 
245.00, 11.36, 40.03, -30.97, -2.86, -14.30, -18.87, 4.00, 
246.00, 11.59, 39.63, -30.79, -2.86, -14.56, -18.89, 4.00, 
247.00, 11.49, 38.99, -31.44, -2.85, -14.81, -18.92, 4.00, 
248.00, 11.69, 39.27, -31.25, -2.84, -15.06, -18.94, 4.00, 
249.00, 11.65, 38.64, -31.27, -2.83, -15.31, -18.96, 4.00, 
250.00, 11.75, 38.41, -30.95, -2.82, -15.57, -18.98, 4.00, 
251.00, 11.86, 38.09, -30.89, -2.82, -15.82, -19.00, 3.99, 
252.00, 11.41, 38.03, -30.98, -2.81, -16.07, -19.03, 3.99, 
253.00, 11.43, 37.86, -31.00, -2.80, -16.32, -19.05, 3.99, 
254.00, 11.40, 37.75, -30.95, -2.79, -16.58, -19.07, 3.99, 
255.00, 11.39, 37.21, -31.25, -2.79, -16.83, -19.09, 3.99, 
