---START---
-255.00, 56.11, 67.83, -40.96, -7.07, 115.05, -9.40, 3.74, 
-254.00, 46.22, 74.11, -32.98, -7.06, 114.81, -9.42, 3.76, 
-253.00, 46.05, 74.22, -33.32, -7.05, 114.57, -9.43, 3.78, 
-252.00, 45.75, 72.76, -32.31, -7.05, 114.33, -9.45, 3.75, 
-251.00, 46.03, 71.59, -31.39, -7.04, 114.08, -9.46, 3.77, 
-250.00, 43.53, 69.56, -33.32, -7.03, 113.84, -9.48, 3.85, 
-249.00, 41.64, 68.08, -34.16, -7.02, 113.60, -9.49, 3.77, 
-248.00, 42.79, 68.32, -33.53, -7.02, 113.36, -9.51, 3.77, 
-247.00, 42.65, 69.20, -33.73, -7.01, 113.11, -9.53, 3.81, 
-246.00, 42.75, 68.27, -33.83, -7.00, 112.87, -9.54, 3.79, 
-245.00, 42.60, 68.18, -33.92, -6.99, 112.63, -9.56, 3.80, 
-244.00, 42.13, 68.48, -33.75, -6.99, 112.38, -9.57, 3.83, 
-243.00, 42.32, 68.50, -33.90, -6.98, 112.14, -9.59, 3.82, 
-242.00, 42.03, 67.40, -33.87, -6.97, 111.90, -9.61, 3.79, 
-241.00, 41.96, 67.45, -33.67, -6.96, 111.65, -9.62, 3.81, 
-240.00, 41.96, 68.13, -33.64, -6.96, 111.41, -9.64, 3.87, 
-239.00, 42.06, 68.75, -33.93, -6.95, 111.17, -9.65, 3.89, 
-238.00, 42.09, 68.44, -33.73, -6.94, 110.92, -9.67, 3.91, 
-237.00, 41.89, 68.35, -33.81, -6.93, 110.68, -9.69, 3.91, 
-236.00, 42.33, 67.68, -34.24, -6.93, 110.43, -9.70, 3.91, 
-235.00, 42.48, 67.90, -34.10, -6.92, 110.19, -9.72, 3.91, 
-234.00, 42.02, 65.67, -33.90, -6.91, 109.94, -9.73, 3.91, 
-233.00, 42.36, 67.09, -33.83, -6.90, 109.70, -9.75, 3.91, 
-232.00, 42.46, 67.14, -34.02, -6.90, 109.45, -9.77, 3.92, 
-231.00, 42.20, 67.18, -34.06, -6.89, 109.21, -9.78, 3.92, 
-230.00, 42.21, 66.72, -34.37, -6.88, 108.96, -9.80, 3.91, 
-229.00, 42.19, 65.67, -34.16, -6.87, 108.72, -9.82, 3.88, 
-228.00, 42.05, 63.85, -34.24, -6.87, 108.47, -9.83, 3.81, 
-227.00, 42.46, 64.46, -34.05, -6.86, 108.22, -9.85, 3.83, 
-226.00, 42.16, 64.24, -33.79, -6.85, 107.98, -9.86, 3.86, 
-225.00, 42.16, 64.54, -34.14, -6.84, 107.73, -9.88, 3.87, 
-224.00, 42.15, 64.10, -34.22, -6.84, 107.49, -9.90, 3.87, 
-223.00, 42.05, 63.55, -34.15, -6.83, 107.24, -9.91, 3.87, 
-222.00, 42.37, 64.03, -34.38, -6.82, 106.99, -9.93, 3.87, 
-221.00, 42.40, 63.74, -34.25, -6.81, 106.75, -9.95, 3.88, 
-220.00, 42.15, 64.00, -34.31, -6.81, 106.50, -9.96, 3.88, 
-219.00, 42.25, 63.88, -34.16, -6.80, 106.25, -9.98, 3.87, 
-218.00, 42.00, 63.30, -33.82, -6.79, 106.00, -9.99, 3.88, 
-217.00, 41.95, 63.74, -34.05, -6.78, 105.76, -10.01, 3.89, 
-216.00, 41.89, 62.63, -34.33, -6.77, 105.51, -10.03, 3.90, 
-215.00, 41.73, 62.18, -34.56, -6.77, 105.26, -10.04, 3.90, 
-214.00, 41.93, 62.74, -34.84, -6.76, 105.01, -10.06, 3.91, 
-213.00, 41.99, 62.28, -34.43, -6.75, 104.77, -10.08, 3.91, 
-212.00, 41.90, 62.66, -34.52, -6.74, 104.52, -10.09, 3.91, 
-211.00, 42.24, 62.36, -34.43, -6.74, 104.27, -10.11, 3.91, 
-210.00, 42.19, 61.56, -34.20, -6.73, 104.02, -10.13, 3.90, 
-209.00, 42.03, 61.21, -34.24, -6.72, 103.77, -10.14, 3.90, 
-208.00, 42.11, 60.82, -33.98, -6.71, 103.53, -10.16, 3.90, 
-207.00, 42.48, 60.33, -34.12, -6.71, 103.28, -10.17, 3.88, 
-206.00, 42.12, 60.30, -33.64, -6.70, 103.03, -10.19, 3.88, 
-205.00, 41.89, 59.28, -34.20, -6.69, 102.78, -10.21, 3.90, 
-204.00, 42.08, 59.37, -34.54, -6.68, 102.53, -10.22, 3.91, 
-203.00, 42.01, 60.03, -34.14, -6.67, 102.28, -10.24, 3.91, 
-202.00, 42.23, 59.29, -34.14, -6.67, 102.03, -10.26, 3.92, 
-201.00, 42.09, 60.01, -34.45, -6.66, 101.78, -10.27, 3.92, 
-200.00, 41.83, 59.38, -34.02, -6.65, 101.53, -10.29, 3.92, 
-199.00, 42.26, 58.20, -34.56, -6.64, 101.28, -10.31, 3.93, 
-198.00, 42.32, 58.83, -34.67, -6.63, 101.03, -10.32, 3.92, 
-197.00, 42.05, 58.55, -34.06, -6.63, 100.78, -10.34, 3.92, 
-196.00, 42.21, 57.85, -34.39, -6.62, 100.53, -10.36, 3.92, 
-195.00, 42.15, 58.56, -34.49, -6.61, 100.28, -10.37, 3.93, 
-194.00, 42.39, 58.00, -34.11, -6.60, 100.03, -10.39, 3.92, 
-193.00, 42.24, 58.71, -34.66, -6.60, 99.78, -10.41, 3.92, 
-192.00, 42.34, 57.54, -34.97, -6.59, 99.53, -10.42, 3.93, 
-191.00, 42.18, 57.22, -34.69, -6.58, 99.28, -10.44, 3.92, 
-190.00, 42.19, 57.90, -34.61, -6.57, 99.03, -10.46, 3.91, 
-189.00, 42.29, 56.44, -34.86, -6.56, 98.78, -10.47, 3.92, 
-188.00, 41.90, 56.70, -34.90, -6.56, 98.53, -10.49, 3.92, 
-187.00, 42.24, 56.47, -34.71, -6.55, 98.28, -10.51, 3.93, 
-186.00, 41.88, 55.51, -34.59, -6.54, 98.02, -10.52, 3.92, 
-185.00, 42.16, 56.82, -34.60, -6.53, 97.77, -10.54, 3.92, 
-184.00, 42.24, 55.17, -34.88, -6.52, 97.52, -10.56, 3.92, 
-183.00, 42.23, 55.56, -35.17, -6.52, 97.27, -10.57, 3.93, 
-182.00, 42.37, 56.29, -35.31, -6.51, 97.02, -10.59, 3.93, 
-181.00, 42.27, 55.02, -34.97, -6.50, 96.77, -10.61, 3.94, 
-180.00, 42.70, 55.45, -34.94, -6.49, 96.51, -10.62, 3.95, 
-179.00, 42.46, 55.55, -34.64, -6.48, 96.26, -10.64, 3.95, 
-178.00, 42.63, 53.90, -34.71, -6.48, 96.01, -10.66, 3.94, 
-177.00, 42.67, 54.34, -34.99, -6.47, 95.76, -10.67, 3.94, 
-176.00, 42.67, 52.84, -34.76, -6.46, 95.50, -10.69, 3.94, 
-175.00, 42.34, 53.08, -35.06, -6.45, 95.25, -10.71, 3.95, 
-174.00, 42.13, 54.09, -35.38, -6.44, 95.00, -10.73, 3.95, 
-173.00, 42.22, 52.06, -35.50, -6.44, 94.75, -10.74, 3.94, 
-172.00, 42.48, 53.90, -35.88, -6.43, 94.49, -10.76, 3.94, 
-171.00, 42.43, 53.08, -35.05, -6.42, 94.24, -10.78, 3.93, 
-170.00, 42.46, 52.53, -35.28, -6.41, 93.99, -10.79, 3.91, 
-169.00, 42.41, 52.83, -35.15, -6.40, 93.73, -10.81, 3.91, 
-168.00, 42.44, 50.81, -35.19, -6.39, 93.48, -10.83, 3.90, 
-167.00, 42.61, 52.38, -35.35, -6.39, 93.23, -10.84, 3.91, 
-166.00, 42.42, 50.62, -35.31, -6.38, 92.97, -10.86, 3.92, 
-165.00, 42.43, 50.76, -35.31, -6.37, 92.72, -10.88, 3.93, 
-164.00, 42.32, 51.12, -35.03, -6.36, 92.47, -10.90, 3.93, 
-163.00, 42.42, 49.52, -35.23, -6.35, 92.21, -10.91, 3.93, 
-162.00, 42.38, 51.11, -35.09, -6.35, 91.96, -10.93, 3.93, 
-161.00, 42.29, 49.98, -35.44, -6.34, 91.70, -10.95, 3.92, 
-160.00, 42.34, 51.17, -34.81, -6.33, 91.45, -10.96, 3.93, 
-159.00, 42.50, 50.02, -35.18, -6.32, 91.19, -10.98, 3.93, 
-158.00, 42.29, 49.64, -34.95, -6.31, 90.94, -11.00, 3.94, 
-157.00, 42.36, 50.75, -35.11, -6.30, 90.69, -11.01, 3.94, 
-156.00, 42.25, 48.28, -34.89, -6.30, 90.43, -11.03, 3.94, 
-155.00, 42.20, 48.51, -35.01, -6.29, 90.18, -11.05, 3.94, 
-154.00, 42.24, 49.32, -35.07, -6.28, 89.92, -11.07, 3.95, 
-153.00, 42.21, 47.84, -35.51, -6.27, 89.67, -11.08, 3.95, 
-152.00, 42.11, 48.91, -35.43, -6.26, 89.41, -11.10, 3.95, 
-151.00, 42.24, 47.55, -34.98, -6.26, 89.16, -11.12, 3.94, 
-150.00, 42.45, 48.06, -35.38, -6.25, 88.90, -11.13, 3.95, 
-149.00, 42.58, 47.16, -35.20, -6.24, 88.64, -11.15, 3.95, 
-148.00, 42.24, 46.73, -35.86, -6.23, 88.39, -11.17, 3.95, 
-147.00, 42.39, 47.69, -35.47, -6.22, 88.13, -11.19, 3.95, 
-146.00, 42.61, 45.40, -35.56, -6.21, 87.88, -11.20, 3.95, 
-145.00, 42.65, 46.35, -36.04, -6.21, 87.62, -11.22, 3.94, 
-144.00, 42.25, 45.14, -35.35, -6.20, 87.37, -11.24, 3.95, 
-143.00, 42.28, 45.22, -35.31, -6.19, 87.11, -11.26, 3.95, 
-142.00, 42.51, 46.70, -35.15, -6.18, 86.85, -11.27, 3.96, 
-141.00, 42.12, 45.38, -35.14, -6.17, 86.60, -11.29, 3.96, 
-140.00, 42.22, 46.14, -35.83, -6.16, 86.34, -11.31, 3.95, 
-139.00, 42.34, 44.20, -35.22, -6.16, 86.08, -11.32, 3.95, 
-138.00, 42.48, 43.81, -35.18, -6.15, 85.83, -11.34, 3.96, 
-137.00, 42.49, 45.01, -35.23, -6.14, 85.57, -11.36, 3.96, 
-136.00, 42.76, 43.73, -35.18, -6.13, 85.31, -11.38, 3.95, 
-135.00, 42.35, 45.21, -35.73, -6.12, 85.06, -11.39, 3.95, 
-134.00, 42.72, 43.97, -34.93, -6.11, 84.80, -11.41, 3.96, 
-133.00, 42.80, 42.69, -35.06, -6.11, 84.54, -11.43, 3.96, 
-132.00, 42.71, 43.83, -35.34, -6.10, 84.29, -11.45, 3.95, 
-131.00, 42.77, 42.53, -34.93, -6.09, 84.03, -11.46, 3.95, 
-130.00, 42.61, 43.74, -35.39, -6.08, 83.77, -11.48, 3.96, 
-129.00, 42.58, 42.82, -35.41, -6.07, 83.51, -11.50, 3.97, 
-128.00, 42.58, 41.69, -35.12, -6.06, 83.26, -11.52, 3.96, 
-127.00, 42.58, 42.34, -35.27, -6.06, 83.00, -11.53, 3.96, 
-126.00, 42.80, 40.51, -35.21, -6.05, 82.74, -11.55, 3.97, 
-125.00, 42.86, 42.40, -35.93, -6.04, 82.48, -11.57, 3.96, 
-124.00, 42.67, 40.98, -35.22, -6.03, 82.23, -11.59, 3.96, 
-123.00, 42.50, 40.83, -35.19, -6.02, 81.97, -11.60, 3.97, 
-122.00, 42.61, 40.29, -35.39, -6.01, 81.71, -11.62, 3.95, 
-121.00, 42.58, 39.18, -35.71, -6.01, 81.45, -11.64, 3.97, 
-120.00, 42.57, 41.61, -35.59, -6.00, 81.19, -11.66, 3.97, 
-119.00, 42.72, 39.87, -35.26, -5.99, 80.94, -11.67, 3.97, 
-118.00, 42.54, 40.35, -35.64, -5.98, 80.68, -11.69, 3.97, 
-117.00, 42.56, 38.90, -35.45, -5.97, 80.42, -11.71, 3.98, 
-116.00, 42.70, 38.53, -35.80, -5.96, 80.16, -11.73, 3.97, 
-115.00, 42.99, 39.58, -36.00, -5.95, 79.90, -11.74, 3.97, 
-114.00, 42.81, 38.85, -35.97, -5.95, 79.64, -11.76, 3.97, 
-113.00, 42.53, 39.60, -36.09, -5.94, 79.38, -11.78, 3.97, 
-112.00, 42.62, 37.31, -35.96, -5.93, 79.13, -11.80, 3.98, 
-111.00, 42.68, 38.26, -35.70, -5.92, 78.87, -11.82, 3.98, 
-110.00, 42.61, 36.58, -35.46, -5.91, 78.61, -11.83, 3.98, 
-109.00, 42.83, 38.24, -35.93, -5.90, 78.35, -11.85, 3.98, 
-108.00, 42.75, 38.08, -36.08, -5.90, 78.09, -11.87, 3.98, 
-107.00, 42.68, 37.35, -36.07, -5.89, 77.83, -11.89, 3.98, 
-106.00, 42.87, 37.87, -36.02, -5.88, 77.57, -11.90, 3.98, 
-105.00, 43.20, 35.82, -35.71, -5.87, 77.31, -11.92, 3.98, 
-104.00, 43.16, 37.22, -35.73, -5.86, 77.05, -11.94, 3.98, 
-103.00, 43.15, 35.30, -35.59, -5.85, 76.79, -11.96, 3.98, 
-102.00, 43.13, 37.00, -35.93, -5.84, 76.53, -11.98, 3.98, 
-101.00, 42.75, 34.52, -36.04, -5.84, 76.27, -11.99, 3.98, 
-100.00, 42.68, 35.36, -36.27, -5.83, 76.01, -12.01, 3.98, 
-99.00, 42.98, 35.37, -35.76, -5.82, 75.75, -12.03, 3.98, 
-98.00, 43.27, 35.76, -35.73, -5.81, 75.49, -12.05, 3.98, 
-97.00, 43.04, 35.87, -35.99, -5.80, 75.23, -12.06, 3.99, 
-96.00, 43.00, 33.87, -35.82, -5.79, 74.97, -12.08, 3.98, 
-95.00, 43.10, 35.49, -35.56, -5.78, 74.71, -12.10, 3.99, 
-94.00, 43.22, 34.02, -35.43, -5.78, 74.45, -12.12, 3.98, 
-93.00, 43.00, 34.92, -35.60, -5.77, 74.19, -12.14, 3.98, 
-92.00, 43.08, 33.08, -35.42, -5.76, 73.93, -12.15, 3.99, 
-91.00, 43.01, 34.57, -35.73, -5.75, 73.67, -12.17, 3.98, 
-90.00, 43.23, 33.52, -35.77, -5.74, 73.41, -12.19, 3.99, 
-89.00, 43.17, 33.08, -35.92, -5.73, 73.15, -12.21, 3.99, 
-88.00, 43.11, 32.71, -35.34, -5.72, 72.89, -12.23, 3.99, 
-87.00, 43.03, 33.51, -35.48, -5.72, 72.63, -12.24, 3.99, 
-86.00, 43.36, 32.62, -35.98, -5.71, 72.37, -12.26, 3.99, 
-85.00, 43.09, 31.21, -35.93, -5.70, 72.11, -12.28, 3.99, 
-84.00, 42.82, 33.16, -35.65, -5.69, 71.85, -12.30, 3.99, 
-83.00, 42.72, 31.13, -35.68, -5.68, 71.59, -12.32, 3.99, 
-82.00, 42.93, 31.78, -35.70, -5.67, 71.33, -12.33, 3.99, 
-81.00, 43.00, 30.42, -35.78, -5.66, 71.06, -12.35, 3.99, 
-80.00, 42.74, 32.29, -35.70, -5.66, 70.80, -12.37, 3.99, 
-79.00, 42.76, 30.15, -35.53, -5.65, 70.54, -12.39, 3.99, 
-78.00, 42.57, 30.50, -36.18, -5.64, 70.28, -12.41, 3.99, 
-77.00, 43.08, 30.82, -36.35, -5.63, 70.02, -12.42, 3.99, 
-76.00, 42.99, 30.71, -36.12, -5.62, 69.76, -12.44, 3.99, 
-75.00, 42.96, 29.75, -36.42, -5.61, 69.50, -12.46, 3.99, 
-74.00, 42.95, 28.92, -36.54, -5.60, 69.23, -12.48, 3.99, 
-73.00, 43.16, 30.00, -35.98, -5.59, 68.97, -12.50, 3.99, 
-72.00, 42.96, 27.75, -36.34, -5.59, 68.71, -12.51, 3.99, 
-71.00, 43.20, 29.27, -36.31, -5.58, 68.45, -12.53, 3.99, 
-70.00, 43.08, 27.69, -35.97, -5.57, 68.19, -12.55, 3.99, 
-69.00, 42.81, 28.65, -36.15, -5.56, 67.93, -12.57, 3.99, 
-68.00, 42.92, 27.09, -35.76, -5.55, 67.66, -12.59, 3.99, 
-67.00, 42.70, 28.66, -36.28, -5.54, 67.40, -12.61, 3.99, 
-66.00, 42.68, 28.09, -36.40, -5.53, 67.14, -12.62, 3.99, 
-65.00, 42.81, 27.85, -36.07, -5.53, 66.88, -12.64, 3.99, 
-64.00, 42.69, 28.03, -35.89, -5.52, 66.62, -12.66, 3.99, 
-63.00, 42.69, 27.92, -36.23, -5.51, 66.35, -12.68, 4.00, 
-62.00, 42.84, 26.56, -35.91, -5.50, 66.09, -12.70, 3.99, 
-61.00, 42.81, 26.72, -36.40, -5.49, 65.83, -12.72, 3.99, 
-60.00, 42.59, 27.05, -36.29, -5.48, 65.57, -12.73, 4.00, 
-59.00, 42.62, 25.57, -36.97, -5.47, 65.30, -12.75, 3.99, 
-58.00, 42.95, 26.55, -36.80, -5.46, 65.04, -12.77, 3.99, 
-57.00, 43.02, 25.87, -36.44, -5.46, 64.78, -12.79, 4.00, 
-56.00, 43.22, 25.92, -36.39, -5.45, 64.52, -12.81, 4.00, 
-55.00, 42.71, 24.57, -37.02, -5.44, 64.25, -12.83, 4.00, 
-54.00, 42.77, 25.53, -36.57, -5.43, 63.99, -12.84, 4.00, 
-53.00, 43.34, 23.71, -36.37, -5.42, 63.73, -12.86, 4.00, 
-52.00, 43.24, 25.47, -36.85, -5.41, 63.47, -12.88, 4.00, 
-51.00, 43.33, 23.55, -36.88, -5.40, 63.20, -12.90, 4.00, 
-50.00, 43.11, 24.60, -36.38, -5.39, 62.94, -12.92, 3.99, 
-49.00, 42.97, 24.00, -36.61, -5.39, 62.68, -12.94, 4.00, 
-48.00, 43.12, 23.11, -36.54, -5.38, 62.42, -12.95, 4.00, 
-47.00, 43.22, 23.05, -36.52, -5.37, 62.15, -12.97, 4.00, 
-46.00, 43.08, 23.39, -36.72, -5.36, 61.89, -12.99, 4.00, 
-45.00, 43.22, 22.84, -36.68, -5.35, 61.63, -13.01, 4.00, 
-44.00, 42.93, 22.71, -36.60, -5.34, 61.36, -13.03, 4.00, 
-43.00, 42.67, 22.32, -37.03, -5.33, 61.10, -13.05, 4.00, 
-42.00, 42.92, 21.79, -36.85, -5.32, 60.84, -13.07, 4.00, 
-41.00, 43.30, 22.03, -36.92, -5.32, 60.57, -13.08, 4.00, 
-40.00, 43.19, 21.00, -36.97, -5.31, 60.31, -13.10, 4.00, 
-39.00, 43.06, 21.85, -36.92, -5.30, 60.05, -13.12, 4.00, 
-38.00, 43.21, 20.61, -36.66, -5.29, 59.78, -13.14, 4.00, 
-37.00, 43.41, 21.21, -36.88, -5.28, 59.52, -13.16, 4.00, 
-36.00, 42.81, 20.42, -36.54, -5.27, 59.26, -13.18, 4.00, 
-35.00, 43.20, 20.46, -36.65, -5.26, 58.99, -13.20, 3.99, 
-34.00, 43.24, 19.58, -36.89, -5.25, 58.73, -13.21, 3.99, 
-33.00, 42.85, 19.99, -36.99, -5.25, 58.47, -13.23, 3.99, 
-32.00, 43.02, 18.97, -36.60, -5.24, 58.20, -13.25, 3.99, 
-31.00, 42.98, 19.55, -36.77, -5.23, 57.94, -13.27, 3.99, 
-30.00, 42.91, 18.35, -36.56, -5.22, 57.68, -13.29, 3.99, 
-29.00, 43.29, 19.12, -36.77, -5.21, 57.41, -13.31, 3.99, 
-28.00, 43.23, 17.89, -37.29, -5.20, 57.15, -13.33, 3.99, 
-27.00, 42.91, 18.74, -37.04, -5.19, 56.88, -13.35, 3.98, 
-26.00, 43.05, 17.68, -37.28, -5.18, 56.62, -13.36, 3.98, 
-25.00, 42.76, 18.10, -37.31, -5.18, 56.36, -13.38, 3.98, 
-24.00, 43.50, 17.14, -37.35, -5.17, 56.09, -13.40, 3.98, 
-23.00, 43.52, 17.77, -37.20, -5.16, 55.83, -13.42, 3.98, 
-22.00, 43.04, 17.55, -37.55, -5.15, 55.57, -13.44, 3.98, 
-21.00, 43.28, 17.00, -37.18, -5.14, 55.30, -13.46, 3.98, 
-20.00, 43.33, 16.83, -36.67, -5.13, 55.04, -13.48, 3.98, 
-19.00, 43.32, 16.49, -37.19, -5.12, 54.77, -13.50, 3.98, 
-18.00, 42.88, 16.30, -36.80, -5.11, 54.51, -13.51, 3.97, 
-17.00, 43.02, 15.73, -36.85, -5.10, 54.25, -13.53, 3.97, 
-16.00, 42.96, 15.69, -36.98, -5.10, 53.98, -13.55, 3.97, 
-15.00, 43.13, 15.63, -37.22, -5.09, 53.72, -13.57, 3.97, 
-14.00, 43.12, 14.93, -37.52, -5.08, 53.45, -13.59, 3.97, 
-13.00, 43.19, 14.66, -37.55, -5.07, 53.19, -13.61, 3.98, 
-12.00, 43.45, 14.76, -36.76, -5.06, 52.92, -13.63, 3.98, 
-11.00, 43.61, 14.53, -36.98, -5.05, 52.66, -13.65, 3.98, 
-10.00, 43.17, 14.33, -37.45, -5.04, 52.40, -13.67, 3.98, 
-9.00, 43.17, 13.91, -37.51, -5.03, 52.13, -13.68, 3.98, 
-8.00, 43.30, 13.87, -37.42, -5.03, 51.87, -13.70, 3.98, 
-7.00, 43.28, 13.38, -37.34, -5.02, 51.60, -13.72, 3.98, 
-6.00, 43.14, 13.32, -37.24, -5.01, 51.34, -13.74, 3.98, 
-5.00, 43.35, 13.03, -37.23, -5.00, 51.07, -13.76, 3.98, 
-4.00, 43.38, 12.53, -37.22, -4.99, 50.81, -13.78, 3.98, 
-3.00, 43.00, 12.33, -37.43, -4.98, 50.55, -13.80, 3.99, 
-2.00, 43.16, 12.22, -37.07, -4.97, 50.28, -13.82, 3.99, 
-1.00, 43.45, 12.02, -37.35, -4.96, 50.02, -13.84, 3.99, 
0.00, 43.18, 11.49, -37.52, -4.95, 49.75, -13.86, 3.99, 
1.00, 43.39, 11.69, -37.37, -4.95, 49.49, -13.87, 3.99, 
2.00, 43.09, 11.53, -37.15, -4.94, 49.22, -13.89, 3.99, 
3.00, 43.21, 11.10, -37.07, -4.93, 48.96, -13.91, 3.99, 
4.00, 43.27, 10.65, -37.54, -4.92, 48.69, -13.93, 3.99, 
5.00, 43.24, 10.52, -37.67, -4.91, 48.43, -13.95, 3.99, 
6.00, 43.20, 10.08, -37.04, -4.90, 48.16, -13.97, 3.99, 
7.00, 43.41, 9.99, -37.39, -4.89, 47.90, -13.99, 3.99, 
8.00, 43.43, 9.78, -37.69, -4.88, 47.63, -14.01, 3.99, 
9.00, 43.40, 9.40, -38.17, -4.88, 47.37, -14.03, 3.99, 
10.00, 43.82, 8.81, -37.83, -4.87, 47.11, -14.05, 3.99, 
11.00, 43.53, 8.81, -37.95, -4.86, 46.84, -14.07, 3.99, 
12.00, 43.64, 8.94, -38.18, -4.85, 46.58, -14.09, 3.99, 
13.00, 43.25, 8.87, -37.84, -4.84, 46.31, -14.10, 3.99, 
14.00, 43.24, 8.31, -37.76, -4.83, 46.05, -14.12, 3.99, 
15.00, 43.37, 8.39, -38.09, -4.82, 45.78, -14.14, 3.99, 
16.00, 43.20, 7.69, -37.78, -4.81, 45.52, -14.16, 3.99, 
17.00, 42.99, 7.81, -37.77, -4.80, 45.25, -14.18, 3.99, 
18.00, 43.08, 7.26, -37.52, -4.80, 44.99, -14.20, 3.99, 
19.00, 43.08, 7.00, -37.40, -4.79, 44.72, -14.22, 3.99, 
20.00, 43.26, 7.11, -37.50, -4.78, 44.46, -14.24, 3.99, 
21.00, 43.31, 6.85, -37.37, -4.77, 44.19, -14.26, 3.99, 
22.00, 43.45, 6.30, -38.17, -4.76, 43.93, -14.28, 3.99, 
23.00, 43.47, 6.54, -38.19, -4.75, 43.66, -14.30, 3.99, 
24.00, 43.41, 6.10, -37.37, -4.74, 43.40, -14.32, 3.98, 
25.00, 43.80, 5.71, -37.27, -4.73, 43.13, -14.34, 3.98, 
26.00, 43.70, 5.40, -36.62, -4.72, 42.87, -14.36, 3.98, 
27.00, 43.96, 4.81, -37.88, -4.72, 42.60, -14.37, 3.98, 
28.00, 44.00, 5.04, -38.26, -4.71, 42.34, -14.39, 3.98, 
29.00, 44.06, 4.23, -38.39, -4.70, 42.07, -14.41, 3.99, 
30.00, 43.95, 4.52, -37.90, -4.69, 41.81, -14.43, 3.99, 
31.00, 43.84, 4.21, -37.52, -4.68, 41.54, -14.45, 3.98, 
32.00, 43.77, 4.56, -36.61, -4.67, 41.28, -14.47, 3.98, 
33.00, 43.72, 3.81, -37.48, -4.66, 41.02, -14.49, 3.98, 
34.00, 43.76, 3.06, -37.50, -4.65, 40.75, -14.51, 3.98, 
35.00, 43.71, 3.76, -37.62, -4.65, 40.49, -14.53, 3.98, 
36.00, 43.75, 3.02, -38.58, -4.64, 40.22, -14.55, 3.98, 
37.00, 43.60, 3.28, -38.06, -4.63, 39.96, -14.57, 3.98, 
38.00, 43.66, 2.19, -37.79, -4.62, 39.69, -14.59, 3.98, 
39.00, 43.87, 1.90, -38.14, -4.61, 39.43, -14.61, 3.98, 
40.00, 43.49, 1.94, -38.26, -4.60, 39.16, -14.63, 3.97, 
41.00, 43.32, 1.27, -38.23, -4.59, 38.90, -14.65, 3.97, 
42.00, 43.41, 1.99, -38.21, -4.58, 38.63, -14.67, 3.97, 
43.00, 43.48, 0.89, -38.02, -4.57, 38.37, -14.69, 3.97, 
44.00, 43.74, 1.53, -37.67, -4.57, 38.10, -14.71, 3.98, 
45.00, 43.57, 1.51, -37.37, -4.56, 37.84, -14.73, 3.98, 
46.00, 43.91, 0.30, -37.53, -4.55, 37.57, -14.74, 3.98, 
47.00, 43.57, 1.37, -37.65, -4.54, 37.31, -14.76, 3.98, 
48.00, 43.74, 0.21, -38.02, -4.53, 37.04, -14.78, 3.97, 
49.00, 44.03, 0.99, -37.74, -4.52, 36.78, -14.80, 3.97, 
50.00, 43.81, -0.40, -38.02, -4.51, 36.51, -14.82, 3.98, 
51.00, 43.64, -0.35, -38.71, -4.50, 36.25, -14.84, 3.98, 
52.00, 43.77, -0.79, -38.31, -4.50, 35.98, -14.86, 3.98, 
53.00, 43.93, -1.28, -38.38, -4.49, 35.72, -14.88, 3.97, 
54.00, 44.13, -0.72, -38.00, -4.48, 35.45, -14.90, 3.97, 
55.00, 43.98, -2.02, -38.59, -4.47, 35.19, -14.92, 3.98, 
56.00, 44.05, -1.42, -38.67, -4.46, 34.92, -14.94, 3.98, 
57.00, 44.41, -2.70, -38.59, -4.45, 34.66, -14.96, 3.98, 
58.00, 44.24, -2.86, -38.36, -4.44, 34.39, -14.98, 3.99, 
59.00, 44.18, -2.86, -38.41, -4.43, 34.13, -15.00, 3.99, 
60.00, 43.99, -3.76, -38.41, -4.42, 33.87, -15.02, 3.99, 
61.00, 43.78, -3.56, -38.41, -4.42, 33.60, -15.04, 3.98, 
62.00, 44.13, -4.28, -38.71, -4.41, 33.34, -15.06, 3.98, 
63.00, 43.82, -4.15, -39.48, -4.40, 33.07, -15.08, 3.98, 
64.00, 44.00, -4.37, -39.21, -4.39, 32.81, -15.10, 3.98, 
65.00, 44.20, -5.34, -39.16, -4.38, 32.54, -15.12, 3.98, 
66.00, 44.11, -4.26, -38.65, -4.37, 32.28, -15.14, 3.98, 
67.00, 44.03, -5.72, -38.78, -4.36, 32.01, -15.16, 3.98, 
68.00, 43.94, -4.22, -38.71, -4.35, 31.75, -15.18, 3.98, 
69.00, 43.81, -5.32, -38.66, -4.35, 31.48, -15.20, 3.98, 
70.00, 43.83, -5.52, -39.09, -4.34, 31.22, -15.22, 3.98, 
71.00, 43.89, -5.48, -38.72, -4.33, 30.95, -15.24, 3.98, 
72.00, 43.94, -6.62, -38.27, -4.32, 30.69, -15.26, 3.98, 
73.00, 43.78, -4.85, -39.04, -4.31, 30.43, -15.28, 3.98, 
74.00, 43.91, -7.07, -38.91, -4.30, 30.16, -15.30, 3.98, 
75.00, 43.63, -6.75, -38.96, -4.29, 29.90, -15.32, 3.98, 
76.00, 44.14, -7.38, -38.65, -4.28, 29.63, -15.34, 3.98, 
77.00, 43.77, -8.02, -39.00, -4.28, 29.37, -15.36, 3.98, 
78.00, 43.92, -7.19, -38.88, -4.27, 29.10, -15.38, 3.98, 
79.00, 44.06, -8.11, -38.98, -4.26, 28.84, -15.40, 3.97, 
80.00, 44.10, -6.43, -38.85, -4.25, 28.57, -15.42, 3.97, 
81.00, 43.98, -7.96, -38.87, -4.24, 28.31, -15.44, 3.97, 
82.00, 43.99, -7.80, -38.77, -4.23, 28.05, -15.46, 3.97, 
83.00, 44.01, -7.69, -38.58, -4.22, 27.78, -15.48, 3.98, 
84.00, 43.89, -8.81, -38.76, -4.21, 27.52, -15.50, 3.97, 
85.00, 44.14, -7.43, -38.64, -4.21, 27.25, -15.52, 3.97, 
86.00, 44.20, -9.64, -38.33, -4.20, 26.99, -15.54, 3.97, 
87.00, 44.15, -9.30, -38.90, -4.19, 26.72, -15.56, 3.97, 
88.00, 44.14, -11.09, -38.78, -4.18, 26.46, -15.58, 3.97, 
89.00, 44.11, -10.34, -39.27, -4.17, 26.20, -15.60, 3.97, 
90.00, 44.00, -10.40, -38.97, -4.16, 25.93, -15.62, 3.97, 
91.00, 43.89, -11.70, -38.99, -4.15, 25.67, -15.64, 3.97, 
92.00, 44.10, -10.49, -39.20, -4.14, 25.40, -15.66, 3.97, 
93.00, 44.35, -11.29, -39.29, -4.14, 25.14, -15.68, 3.96, 
94.00, 44.22, -9.93, -39.64, -4.13, 24.88, -15.70, 3.96, 
95.00, 44.57, -10.47, -39.14, -4.12, 24.61, -15.72, 3.97, 
96.00, 44.59, -11.50, -39.18, -4.11, 24.35, -15.74, 3.97, 
97.00, 44.44, -10.66, -39.23, -4.10, 24.08, -15.76, 3.97, 
98.00, 44.38, -12.10, -39.11, -4.09, 23.82, -15.78, 3.97, 
99.00, 44.43, -11.70, -39.31, -4.08, 23.56, -15.80, 3.97, 
100.00, 44.51, -12.09, -39.42, -4.07, 23.29, -15.82, 3.97, 
101.00, 44.65, -13.05, -39.36, -4.07, 23.03, -15.84, 3.96, 
102.00, 44.55, -12.58, -39.51, -4.06, 22.77, -15.86, 3.96, 
103.00, 44.71, -14.74, -39.20, -4.05, 22.50, -15.88, 3.97, 
104.00, 44.72, -13.58, -39.45, -4.04, 22.24, -15.90, 3.97, 
105.00, 44.48, -13.75, -39.30, -4.03, 21.97, -15.92, 3.97, 
106.00, 44.84, -14.84, -39.75, -4.02, 21.71, -15.94, 3.97, 
107.00, 44.94, -12.72, -39.88, -4.01, 21.45, -15.96, 3.96, 
108.00, 44.71, -14.47, -39.95, -4.00, 21.18, -15.98, 3.96, 
109.00, 44.98, -13.69, -40.24, -4.00, 20.92, -16.00, 3.96, 
110.00, 44.99, -14.93, -39.30, -3.99, 20.66, -16.02, 3.96, 
111.00, 44.92, -15.90, -39.66, -3.98, 20.39, -16.04, 3.96, 
112.00, 44.66, -15.47, -38.97, -3.97, 20.13, -16.06, 3.96, 
113.00, 44.63, -16.77, -39.27, -3.96, 19.87, -16.08, 3.95, 
114.00, 44.61, -15.82, -39.66, -3.95, 19.60, -16.10, 3.96, 
115.00, 44.51, -15.62, -39.53, -3.94, 19.34, -16.13, 3.96, 
116.00, 44.71, -17.28, -39.45, -3.94, 19.08, -16.15, 3.96, 
117.00, 44.46, -16.07, -39.35, -3.93, 18.81, -16.17, 3.95, 
118.00, 44.50, -18.35, -39.44, -3.92, 18.55, -16.19, 3.95, 
119.00, 44.54, -17.07, -39.88, -3.91, 18.29, -16.21, 3.96, 
120.00, 44.63, -17.09, -39.57, -3.90, 18.03, -16.23, 3.96, 
121.00, 44.48, -17.57, -39.60, -3.89, 17.76, -16.25, 3.95, 
122.00, 44.44, -16.67, -39.12, -3.88, 17.50, -16.27, 3.95, 
123.00, 44.66, -19.40, -39.38, -3.87, 17.24, -16.29, 3.96, 
124.00, 44.45, -18.06, -39.57, -3.87, 16.97, -16.31, 3.95, 
125.00, 44.67, -18.42, -39.30, -3.86, 16.71, -16.33, 3.95, 
126.00, 44.47, -18.50, -39.71, -3.85, 16.45, -16.35, 3.93, 
127.00, 44.63, -17.71, -39.51, -3.84, 16.19, -16.37, 3.94, 
128.00, 44.81, -20.76, -39.50, -3.83, 15.92, -16.39, 3.94, 
129.00, 45.08, -19.15, -39.79, -3.82, 15.66, -16.41, 3.93, 
130.00, 44.91, -20.37, -39.78, -3.81, 15.40, -16.43, 3.94, 
131.00, 45.38, -20.92, -39.74, -3.81, 15.14, -16.45, 3.94, 
132.00, 45.00, -18.41, -39.97, -3.80, 14.87, -16.47, 3.95, 
133.00, 44.98, -20.67, -39.69, -3.79, 14.61, -16.49, 3.94, 
134.00, 44.82, -20.73, -40.00, -3.78, 14.35, -16.52, 3.95, 
135.00, 44.55, -20.77, -40.27, -3.77, 14.09, -16.54, 3.95, 
136.00, 44.81, -22.32, -40.34, -3.76, 13.83, -16.56, 3.95, 
137.00, 44.86, -20.55, -39.69, -3.75, 13.56, -16.58, 3.95, 
138.00, 44.89, -20.96, -39.64, -3.75, 13.30, -16.60, 3.94, 
139.00, 44.98, -22.31, -39.79, -3.74, 13.04, -16.62, 3.95, 
140.00, 45.27, -22.09, -39.64, -3.73, 12.78, -16.64, 3.95, 
141.00, 45.23, -23.26, -39.98, -3.72, 12.52, -16.66, 3.94, 
142.00, 44.95, -22.04, -40.05, -3.71, 12.25, -16.68, 3.95, 
143.00, 45.19, -22.07, -39.80, -3.70, 11.99, -16.70, 3.95, 
144.00, 45.32, -23.51, -40.14, -3.69, 11.73, -16.72, 3.95, 
145.00, 45.26, -22.65, -39.83, -3.69, 11.47, -16.74, 3.95, 
146.00, 45.10, -24.55, -39.99, -3.68, 11.21, -16.76, 3.95, 
147.00, 45.24, -23.07, -40.00, -3.67, 10.95, -16.78, 3.96, 
148.00, 45.21, -23.22, -39.92, -3.66, 10.68, -16.80, 3.95, 
149.00, 45.04, -24.83, -39.59, -3.65, 10.42, -16.83, 3.95, 
150.00, 45.22, -24.51, -39.50, -3.64, 10.16, -16.85, 3.95, 
151.00, 45.42, -25.69, -39.91, -3.63, 9.90, -16.87, 3.95, 
152.00, 45.12, -24.01, -39.81, -3.63, 9.64, -16.89, 3.95, 
153.00, 45.24, -24.83, -39.63, -3.62, 9.38, -16.91, 3.95, 
154.00, 45.47, -25.28, -39.61, -3.61, 9.12, -16.93, 3.95, 
155.00, 45.26, -25.51, -39.58, -3.60, 8.86, -16.95, 3.95, 
156.00, 45.32, -27.09, -39.47, -3.59, 8.59, -16.97, 3.95, 
157.00, 45.22, -24.41, -39.30, -3.58, 8.33, -16.99, 3.95, 
158.00, 45.40, -27.13, -39.49, -3.58, 8.07, -17.01, 3.95, 
159.00, 45.14, -27.56, -39.94, -3.57, 7.81, -17.03, 3.95, 
160.00, 45.10, -26.22, -39.91, -3.56, 7.55, -17.06, 3.95, 
161.00, 45.36, -26.92, -40.06, -3.55, 7.29, -17.08, 3.95, 
162.00, 45.46, -26.75, -40.37, -3.54, 7.03, -17.10, 3.95, 
163.00, 45.46, -28.56, -40.25, -3.53, 6.77, -17.12, 3.95, 
164.00, 45.18, -28.03, -39.84, -3.52, 6.51, -17.14, 3.95, 
165.00, 45.32, -27.01, -39.51, -3.52, 6.25, -17.16, 3.95, 
166.00, 45.14, -29.37, -39.62, -3.51, 5.99, -17.18, 3.95, 
167.00, 44.71, -28.23, -39.98, -3.50, 5.73, -17.20, 3.95, 
168.00, 45.14, -28.42, -39.56, -3.49, 5.47, -17.22, 3.95, 
169.00, 45.55, -28.25, -40.28, -3.48, 5.21, -17.24, 3.95, 
170.00, 45.38, -28.51, -40.09, -3.47, 4.95, -17.26, 3.95, 
171.00, 45.40, -30.26, -39.68, -3.47, 4.69, -17.29, 3.95, 
172.00, 45.40, -29.66, -39.99, -3.46, 4.43, -17.31, 3.95, 
173.00, 45.45, -29.36, -39.66, -3.45, 4.17, -17.33, 3.95, 
174.00, 45.31, -31.11, -39.91, -3.44, 3.91, -17.35, 3.95, 
175.00, 45.57, -30.22, -39.92, -3.43, 3.65, -17.37, 3.95, 
176.00, 45.41, -31.72, -40.03, -3.42, 3.39, -17.39, 3.95, 
177.00, 45.05, -30.01, -39.87, -3.42, 3.13, -17.41, 3.95, 
178.00, 45.20, -31.22, -39.82, -3.41, 2.87, -17.43, 3.95, 
179.00, 45.37, -32.44, -39.68, -3.40, 2.61, -17.45, 3.95, 
180.00, 45.01, -30.46, -39.74, -3.39, 2.35, -17.48, 3.95, 
181.00, 45.43, -31.44, -39.87, -3.38, 2.09, -17.50, 3.95, 
182.00, 45.36, -31.79, -39.77, -3.37, 1.83, -17.52, 3.95, 
183.00, 45.63, -31.95, -39.54, -3.37, 1.57, -17.54, 3.95, 
184.00, 45.16, -31.72, -40.00, -3.36, 1.32, -17.56, 3.94, 
185.00, 45.39, -33.29, -39.48, -3.35, 1.06, -17.58, 3.95, 
186.00, 45.47, -33.69, -39.66, -3.34, 0.80, -17.60, 3.94, 
187.00, 45.42, -32.83, -40.32, -3.33, 0.54, -17.62, 3.94, 
188.00, 45.42, -33.76, -40.03, -3.32, 0.28, -17.65, 3.94, 
189.00, 44.91, -32.93, -39.91, -3.32, 0.02, -17.67, 3.93, 
190.00, 45.26, -35.05, -40.31, -3.31, -0.24, -17.69, 3.94, 
191.00, 45.25, -34.03, -39.92, -3.30, -0.49, -17.71, 3.93, 
192.00, 45.43, -34.50, -40.11, -3.29, -0.75, -17.73, 3.94, 
193.00, 45.12, -34.03, -39.69, -3.28, -1.01, -17.75, 3.93, 
194.00, 45.12, -34.68, -39.82, -3.27, -1.27, -17.77, 3.94, 
195.00, 45.68, -35.92, -40.36, -3.27, -1.53, -17.79, 3.93, 
196.00, 45.33, -35.45, -40.11, -3.26, -1.78, -17.82, 3.93, 
197.00, 45.21, -36.22, -40.05, -3.25, -2.04, -17.84, 3.93, 
198.00, 45.17, -35.26, -40.07, -3.24, -2.30, -17.86, 3.93, 
199.00, 45.35, -37.23, -39.79, -3.23, -2.56, -17.88, 3.93, 
200.00, 45.57, -36.50, -40.32, -3.22, -2.82, -17.90, 3.92, 
201.00, 45.62, -37.11, -40.25, -3.22, -3.07, -17.92, 3.93, 
202.00, 45.83, -36.36, -40.18, -3.21, -3.33, -17.94, 3.92, 
203.00, 45.42, -38.00, -40.07, -3.20, -3.59, -17.96, 3.93, 
204.00, 45.40, -37.42, -40.28, -3.19, -3.84, -17.99, 3.92, 
205.00, 45.38, -37.43, -40.56, -3.18, -4.10, -18.01, 3.93, 
206.00, 45.41, -37.36, -40.49, -3.18, -4.36, -18.03, 3.93, 
207.00, 45.53, -37.01, -40.17, -3.17, -4.62, -18.05, 3.93, 
208.00, 45.83, -38.72, -40.20, -3.16, -4.87, -18.07, 3.93, 
209.00, 45.59, -38.15, -39.77, -3.15, -5.13, -18.09, 3.93, 
210.00, 45.42, -38.99, -39.92, -3.14, -5.39, -18.11, 3.92, 
211.00, 45.64, -39.30, -40.18, -3.14, -5.64, -18.14, 3.92, 
212.00, 45.84, -38.53, -40.61, -3.13, -5.90, -18.16, 3.91, 
213.00, 45.80, -39.51, -40.58, -3.12, -6.16, -18.18, 3.92, 
214.00, 45.76, -39.45, -40.29, -3.11, -6.41, -18.20, 3.92, 
215.00, 45.69, -40.59, -40.43, -3.10, -6.67, -18.22, 3.92, 
216.00, 45.65, -39.92, -40.69, -3.09, -6.92, -18.24, 3.91, 
217.00, 45.46, -41.01, -40.66, -3.09, -7.18, -18.27, 3.92, 
218.00, 45.66, -40.73, -40.97, -3.08, -7.44, -18.29, 3.91, 
219.00, 45.83, -40.03, -40.87, -3.07, -7.69, -18.31, 3.91, 
220.00, 45.50, -41.91, -41.01, -3.06, -7.95, -18.33, 3.91, 
221.00, 45.55, -41.32, -40.58, -3.05, -8.20, -18.35, 3.91, 
222.00, 45.82, -40.98, -40.60, -3.05, -8.46, -18.37, 3.91, 
223.00, 45.83, -41.86, -40.71, -3.04, -8.71, -18.39, 3.91, 
224.00, 45.89, -41.89, -40.42, -3.03, -8.97, -18.42, 3.91, 
225.00, 45.71, -42.45, -40.88, -3.02, -9.22, -18.44, 3.91, 
226.00, 45.70, -42.30, -40.63, -3.01, -9.48, -18.46, 3.91, 
227.00, 45.71, -42.78, -40.41, -3.01, -9.73, -18.48, 3.90, 
228.00, 45.45, -43.05, -40.73, -3.00, -9.99, -18.50, 3.91, 
229.00, 45.39, -42.88, -40.79, -2.99, -10.24, -18.52, 3.90, 
230.00, 45.52, -43.68, -40.82, -2.98, -10.50, -18.55, 3.90, 
231.00, 45.67, -43.48, -41.16, -2.97, -10.75, -18.57, 3.90, 
232.00, 45.77, -44.15, -41.10, -2.97, -11.01, -18.59, 3.90, 
233.00, 45.99, -43.62, -41.18, -2.96, -11.26, -18.61, 3.90, 
234.00, 46.09, -44.08, -41.22, -2.95, -11.52, -18.63, 3.90, 
235.00, 45.91, -44.80, -40.66, -2.94, -11.77, -18.66, 3.90, 
236.00, 45.49, -44.62, -41.13, -2.93, -12.02, -18.68, 3.90, 
237.00, 46.14, -45.34, -41.58, -2.93, -12.28, -18.70, 3.90, 
238.00, 45.47, -45.26, -41.44, -2.92, -12.53, -18.72, 3.90, 
239.00, 45.67, -45.38, -41.15, -2.91, -12.78, -18.74, 3.90, 
240.00, 45.65, -45.73, -41.10, -2.90, -13.04, -18.76, 3.90, 
241.00, 45.70, -45.68, -40.96, -2.90, -13.29, -18.79, 3.89, 
242.00, 45.40, -46.35, -41.02, -2.89, -13.54, -18.81, 3.90, 
243.00, 45.37, -46.28, -41.27, -2.88, -13.80, -18.83, 3.90, 
244.00, 45.30, -46.66, -41.14, -2.87, -14.05, -18.85, 3.89, 
245.00, 45.34, -46.90, -41.15, -2.86, -14.30, -18.87, 3.89, 
246.00, 45.48, -47.02, -41.20, -2.86, -14.56, -18.89, 3.89, 
247.00, 45.72, -47.43, -40.92, -2.85, -14.81, -18.92, 3.89, 
248.00, 45.83, -47.41, -40.99, -2.84, -15.06, -18.94, 3.89, 
249.00, 45.63, -48.15, -40.64, -2.83, -15.31, -18.96, 3.89, 
250.00, 45.64, -47.95, -40.98, -2.82, -15.57, -18.98, 3.89, 
251.00, 45.72, -47.97, -40.88, -2.82, -15.82, -19.00, 3.89, 
252.00, 45.59, -48.38, -40.68, -2.81, -16.07, -19.03, 3.89, 
253.00, 45.55, -48.35, -40.74, -2.80, -16.32, -19.05, 3.89, 
254.00, 45.56, -48.42, -40.93, -2.79, -16.58, -19.07, 3.88, 
255.00, 45.63, -48.81, -41.02, -2.79, -16.83, -19.09, 3.88, 
