---START---
-255.00, 38.90, 111.96, -69.47, -7.07, 115.05, -9.40, 3.93, 
-254.00, 32.59, 115.79, -56.31, -7.06, 114.81, -9.42, 3.96, 
-253.00, 33.05, 115.41, -55.87, -7.05, 114.57, -9.43, 3.95, 
-252.00, 33.49, 115.76, -55.38, -7.05, 114.33, -9.45, 3.97, 
-251.00, 34.05, 116.30, -55.19, -7.04, 114.08, -9.46, 3.97, 
-250.00, 33.65, 115.88, -55.53, -7.03, 113.84, -9.48, 3.97, 
-249.00, 33.70, 115.56, -55.65, -7.02, 113.60, -9.49, 3.98, 
-248.00, 33.57, 115.58, -55.26, -7.02, 113.36, -9.51, 3.98, 
-247.00, 34.01, 115.23, -55.14, -7.01, 113.11, -9.53, 3.98, 
-246.00, 34.00, 114.80, -55.11, -7.00, 112.87, -9.54, 3.98, 
-245.00, 33.88, 114.73, -55.09, -6.99, 112.63, -9.56, 3.98, 
-244.00, 33.78, 114.72, -55.11, -6.99, 112.38, -9.57, 3.98, 
-243.00, 34.17, 114.25, -55.36, -6.98, 112.14, -9.59, 3.98, 
-242.00, 33.99, 114.05, -54.99, -6.97, 111.90, -9.61, 3.97, 
-241.00, 33.51, 114.07, -55.19, -6.96, 111.65, -9.62, 3.98, 
-240.00, 33.68, 113.13, -55.28, -6.96, 111.41, -9.64, 3.98, 
-239.00, 33.79, 113.57, -55.13, -6.95, 111.17, -9.65, 3.99, 
-238.00, 33.95, 113.18, -55.29, -6.94, 110.92, -9.67, 3.98, 
-237.00, 33.87, 113.07, -55.69, -6.93, 110.68, -9.69, 3.99, 
-236.00, 33.50, 112.14, -55.43, -6.93, 110.43, -9.70, 3.99, 
-235.00, 33.03, 112.43, -55.85, -6.92, 110.19, -9.72, 4.00, 
-234.00, 32.96, 110.84, -56.18, -6.91, 109.94, -9.73, 4.00, 
-233.00, 32.57, 111.28, -56.41, -6.90, 109.70, -9.75, 4.01, 
-232.00, 32.10, 108.68, -56.93, -6.90, 109.45, -9.77, 4.01, 
-231.00, 31.89, 107.16, -57.54, -6.89, 109.21, -9.78, 3.99, 
-230.00, 30.91, 102.91, -58.58, -6.88, 108.96, -9.80, 4.01, 
-229.00, 30.03, 97.78, -58.97, -6.87, 108.72, -9.82, 3.99, 
-228.00, 30.18, 92.94, -58.61, -6.87, 108.47, -9.83, 4.01, 
-227.00, 30.31, 88.70, -58.68, -6.86, 108.22, -9.85, 4.01, 
-226.00, 29.49, 84.48, -58.40, -6.85, 107.98, -9.86, 4.01, 
-225.00, 27.79, 82.27, -58.23, -6.84, 107.73, -9.88, 4.01, 
-224.00, 26.51, 78.72, -58.69, -6.84, 107.49, -9.90, 4.01, 
-223.00, 25.50, 77.29, -58.87, -6.83, 107.24, -9.91, 4.01, 
-222.00, 24.37, 75.70, -59.06, -6.82, 106.99, -9.93, 4.01, 
-221.00, 24.00, 74.96, -58.82, -6.81, 106.75, -9.95, 4.01, 
-220.00, 23.30, 72.85, -58.61, -6.81, 106.50, -9.96, 4.00, 
-219.00, 22.66, 69.89, -57.80, -6.80, 106.25, -9.98, 4.01, 
-218.00, 22.70, 68.07, -57.01, -6.79, 106.00, -9.99, 3.99, 
-217.00, 22.43, 66.85, -56.92, -6.78, 105.76, -10.01, 4.01, 
-216.00, 22.10, 64.97, -56.25, -6.77, 105.51, -10.03, 4.01, 
-215.00, 22.65, 62.75, -55.31, -6.77, 105.26, -10.04, 4.02, 
-214.00, 24.68, 58.49, -51.58, -6.76, 105.01, -10.06, 4.01, 
-213.00, 26.94, 54.21, -47.39, -6.75, 104.77, -10.08, 4.02, 
-212.00, 28.01, 51.67, -45.17, -6.74, 104.52, -10.09, 4.01, 
-211.00, 26.86, 51.04, -46.59, -6.74, 104.27, -10.11, 4.02, 
-210.00, 25.32, 52.07, -48.56, -6.73, 104.02, -10.13, 4.02, 
-209.00, 27.26, 51.93, -47.36, -6.72, 103.77, -10.14, 4.02, 
-208.00, 33.86, 54.72, -42.31, -6.71, 103.53, -10.16, 4.02, 
-207.00, 40.84, 57.43, -36.35, -6.71, 103.28, -10.17, 4.00, 
-206.00, 47.47, 63.39, -29.10, -6.70, 103.03, -10.19, 4.02, 
-205.00, 52.97, 68.89, -21.37, -6.69, 102.78, -10.21, 4.00, 
-204.00, 55.01, 77.40, -23.22, -6.68, 102.53, -10.22, 4.02, 
-203.00, 53.68, 83.03, -31.33, -6.67, 102.28, -10.24, 3.86, 
-202.00, 54.97, 97.28, -29.44, -6.67, 102.03, -10.26, 3.91, 
-201.00, 52.66, 109.89, -27.50, -6.66, 101.78, -10.27, 3.86, 
-200.00, 50.46, 117.97, -23.26, -6.65, 101.53, -10.29, 3.86, 
-199.00, 48.31, 120.93, -20.34, -6.64, 101.28, -10.31, 3.80, 
-198.00, 45.19, 126.01, -21.15, -6.63, 101.03, -10.32, 3.79, 
-197.00, 42.46, 125.77, -25.66, -6.63, 100.78, -10.34, 3.77, 
-196.00, 38.63, 130.25, -31.77, -6.62, 100.53, -10.36, 3.86, 
-195.00, 32.84, 129.00, -39.73, -6.61, 100.28, -10.37, 3.89, 
-194.00, 27.03, 129.66, -45.92, -6.60, 100.03, -10.39, 3.85, 
-193.00, 30.33, 131.91, -38.48, -6.60, 99.78, -10.41, 3.79, 
-192.00, 30.37, 135.35, -36.52, -6.59, 99.53, -10.42, 3.83, 
-191.00, 29.94, 132.47, -39.65, -6.58, 99.28, -10.44, 3.82, 
-190.00, 28.59, 134.60, -39.18, -6.57, 99.03, -10.46, 3.84, 
-189.00, 28.99, 134.23, -38.72, -6.56, 98.78, -10.47, 3.86, 
-188.00, 29.15, 134.25, -39.19, -6.56, 98.53, -10.49, 3.84, 
-187.00, 29.35, 134.08, -39.70, -6.55, 98.28, -10.51, 3.86, 
-186.00, 29.14, 133.57, -38.97, -6.54, 98.02, -10.52, 3.85, 
-185.00, 29.35, 133.04, -38.52, -6.53, 97.77, -10.54, 3.87, 
-184.00, 29.57, 132.50, -39.01, -6.52, 97.52, -10.56, 3.86, 
-183.00, 29.38, 133.67, -39.06, -6.52, 97.27, -10.57, 3.88, 
-182.00, 29.49, 132.62, -38.93, -6.51, 97.02, -10.59, 3.86, 
-181.00, 29.58, 133.02, -38.56, -6.50, 96.77, -10.61, 3.88, 
-180.00, 29.52, 131.39, -38.64, -6.49, 96.51, -10.62, 3.86, 
-179.00, 29.51, 132.43, -38.24, -6.48, 96.26, -10.64, 3.88, 
-178.00, 29.72, 131.07, -38.09, -6.48, 96.01, -10.66, 3.87, 
-177.00, 29.73, 132.45, -38.63, -6.47, 95.76, -10.67, 3.89, 
-176.00, 29.77, 130.19, -38.70, -6.46, 95.50, -10.69, 3.88, 
-175.00, 30.34, 131.17, -38.57, -6.45, 95.25, -10.71, 3.89, 
-174.00, 29.85, 130.77, -38.72, -6.44, 95.00, -10.73, 3.88, 
-173.00, 29.74, 131.41, -38.75, -6.44, 94.75, -10.74, 3.88, 
-172.00, 29.97, 130.45, -38.66, -6.43, 94.49, -10.76, 3.89, 
-171.00, 29.77, 130.58, -38.20, -6.42, 94.24, -10.78, 3.87, 
-170.00, 29.97, 130.88, -38.74, -6.41, 93.99, -10.79, 3.89, 
-169.00, 29.80, 129.56, -38.96, -6.40, 93.73, -10.81, 3.87, 
-168.00, 30.61, 130.47, -39.04, -6.39, 93.48, -10.83, 3.90, 
-167.00, 29.63, 128.17, -39.34, -6.39, 93.23, -10.84, 3.88, 
-166.00, 29.75, 129.73, -39.01, -6.38, 92.97, -10.86, 3.90, 
-165.00, 29.84, 128.84, -38.86, -6.37, 92.72, -10.88, 3.88, 
-164.00, 29.67, 129.24, -39.14, -6.36, 92.47, -10.90, 3.90, 
-163.00, 29.63, 127.54, -39.52, -6.35, 92.21, -10.91, 3.88, 
-162.00, 30.01, 128.29, -39.54, -6.35, 91.96, -10.93, 3.90, 
-161.00, 29.71, 127.61, -39.11, -6.34, 91.70, -10.95, 3.89, 
-160.00, 30.14, 128.36, -38.76, -6.33, 91.45, -10.96, 3.90, 
-159.00, 29.89, 128.05, -38.62, -6.32, 91.19, -10.98, 3.89, 
-158.00, 29.75, 127.49, -38.71, -6.31, 90.94, -11.00, 3.91, 
-157.00, 30.24, 128.33, -39.25, -6.30, 90.69, -11.01, 3.89, 
-156.00, 29.95, 126.16, -39.21, -6.30, 90.43, -11.03, 3.91, 
-155.00, 29.94, 125.92, -39.18, -6.29, 90.18, -11.05, 3.89, 
-154.00, 29.91, 126.78, -39.30, -6.28, 89.92, -11.07, 3.91, 
-153.00, 29.71, 125.49, -39.18, -6.27, 89.67, -11.08, 3.90, 
-152.00, 30.63, 125.07, -39.04, -6.26, 89.41, -11.10, 3.92, 
-151.00, 30.07, 125.89, -39.51, -6.26, 89.16, -11.12, 3.90, 
-150.00, 29.74, 124.57, -39.48, -6.25, 88.90, -11.13, 3.92, 
-149.00, 30.05, 124.95, -39.45, -6.24, 88.64, -11.15, 3.90, 
-148.00, 29.98, 125.09, -39.68, -6.23, 88.39, -11.17, 3.92, 
-147.00, 29.92, 124.00, -39.66, -6.22, 88.13, -11.19, 3.91, 
-146.00, 30.82, 123.65, -39.59, -6.21, 87.88, -11.20, 3.93, 
-145.00, 30.09, 124.71, -39.32, -6.21, 87.62, -11.22, 3.92, 
-144.00, 29.99, 123.28, -39.52, -6.20, 87.37, -11.24, 3.91, 
-143.00, 29.69, 123.75, -39.32, -6.19, 87.11, -11.26, 3.91, 
-142.00, 29.79, 123.83, -39.73, -6.18, 86.85, -11.27, 3.93, 
-141.00, 29.94, 122.70, -39.18, -6.17, 86.60, -11.29, 3.91, 
-140.00, 29.96, 122.84, -39.49, -6.16, 86.34, -11.31, 3.93, 
-139.00, 30.43, 122.03, -39.33, -6.16, 86.08, -11.32, 3.91, 
-138.00, 30.04, 122.76, -39.72, -6.15, 85.83, -11.34, 3.93, 
-137.00, 29.22, 122.35, -39.44, -6.14, 85.57, -11.36, 3.93, 
-136.00, 29.94, 121.98, -39.89, -6.13, 85.31, -11.38, 3.92, 
-135.00, 30.10, 122.76, -39.66, -6.12, 85.06, -11.39, 3.93, 
-134.00, 30.26, 120.91, -39.54, -6.11, 84.80, -11.41, 3.92, 
-133.00, 30.11, 122.43, -39.24, -6.11, 84.54, -11.43, 3.92, 
-132.00, 30.06, 121.00, -39.29, -6.10, 84.29, -11.45, 3.94, 
-131.00, 30.05, 120.04, -39.28, -6.09, 84.03, -11.46, 3.93, 
-130.00, 30.34, 121.09, -39.21, -6.08, 83.77, -11.48, 3.92, 
-129.00, 30.70, 120.39, -39.34, -6.07, 83.51, -11.50, 3.93, 
-128.00, 30.53, 119.88, -39.28, -6.06, 83.26, -11.52, 3.93, 
-127.00, 30.42, 120.14, -39.18, -6.06, 83.00, -11.53, 3.92, 
-126.00, 30.28, 120.84, -39.55, -6.05, 82.74, -11.55, 3.94, 
-125.00, 30.19, 119.73, -39.41, -6.04, 82.48, -11.57, 3.92, 
-124.00, 30.09, 118.32, -39.32, -6.03, 82.23, -11.59, 3.94, 
-123.00, 30.54, 118.78, -39.32, -6.02, 81.97, -11.60, 3.93, 
-122.00, 30.03, 119.41, -39.22, -6.01, 81.71, -11.62, 3.95, 
-121.00, 30.44, 119.27, -40.31, -6.01, 81.45, -11.64, 3.94, 
-120.00, 30.59, 118.48, -39.58, -6.00, 81.19, -11.66, 3.93, 
-119.00, 30.10, 118.44, -39.27, -5.99, 80.94, -11.67, 3.95, 
-118.00, 30.33, 117.93, -39.55, -5.98, 80.68, -11.69, 3.93, 
-117.00, 30.18, 116.44, -39.16, -5.97, 80.42, -11.71, 3.95, 
-116.00, 30.22, 117.50, -39.42, -5.96, 80.16, -11.73, 3.94, 
-115.00, 30.55, 117.96, -39.55, -5.95, 79.90, -11.74, 3.94, 
-114.00, 30.44, 115.72, -39.83, -5.95, 79.64, -11.76, 3.94, 
-113.00, 30.63, 117.13, -39.57, -5.94, 79.38, -11.78, 3.94, 
-112.00, 30.75, 117.24, -39.39, -5.93, 79.13, -11.80, 3.95, 
-111.00, 30.29, 115.97, -39.68, -5.92, 78.87, -11.82, 3.94, 
-110.00, 30.57, 117.11, -39.02, -5.91, 78.61, -11.83, 3.94, 
-109.00, 30.08, 115.90, -39.56, -5.90, 78.35, -11.85, 3.95, 
-108.00, 30.34, 114.20, -39.76, -5.90, 78.09, -11.87, 3.94, 
-107.00, 30.44, 116.05, -39.97, -5.89, 77.83, -11.89, 3.94, 
-106.00, 30.34, 114.43, -39.97, -5.88, 77.57, -11.90, 3.95, 
-105.00, 30.28, 114.36, -39.46, -5.87, 77.31, -11.92, 3.94, 
-104.00, 30.39, 115.69, -39.03, -5.86, 77.05, -11.94, 3.96, 
-103.00, 30.63, 114.61, -39.90, -5.85, 76.79, -11.96, 3.95, 
-102.00, 30.52, 112.98, -39.98, -5.84, 76.53, -11.98, 3.95, 
-101.00, 30.44, 113.73, -39.37, -5.84, 76.27, -11.99, 3.96, 
-100.00, 30.27, 113.30, -39.81, -5.83, 76.01, -12.01, 3.95, 
-99.00, 30.37, 113.08, -40.18, -5.82, 75.75, -12.03, 3.95, 
-98.00, 30.16, 113.34, -39.65, -5.81, 75.49, -12.05, 3.96, 
-97.00, 30.22, 112.85, -39.57, -5.80, 75.23, -12.06, 3.95, 
-96.00, 30.33, 112.35, -40.08, -5.79, 74.97, -12.08, 3.97, 
-95.00, 30.33, 112.47, -39.87, -5.78, 74.71, -12.10, 3.95, 
-94.00, 30.55, 112.48, -39.68, -5.78, 74.45, -12.12, 3.95, 
-93.00, 30.48, 113.06, -39.96, -5.77, 74.19, -12.14, 3.96, 
-92.00, 30.58, 111.10, -39.92, -5.76, 73.93, -12.15, 3.95, 
-91.00, 30.59, 111.69, -39.58, -5.75, 73.67, -12.17, 3.97, 
-90.00, 30.56, 112.21, -40.51, -5.74, 73.41, -12.19, 3.96, 
-89.00, 30.42, 110.83, -39.92, -5.73, 73.15, -12.21, 3.95, 
-88.00, 30.71, 111.26, -40.00, -5.72, 72.89, -12.23, 3.96, 
-87.00, 30.62, 110.84, -40.35, -5.72, 72.63, -12.24, 3.96, 
-86.00, 30.69, 109.91, -40.42, -5.71, 72.37, -12.26, 3.96, 
-85.00, 30.70, 110.59, -39.96, -5.70, 72.11, -12.28, 3.96, 
-84.00, 30.82, 109.19, -40.06, -5.69, 71.85, -12.30, 3.96, 
-83.00, 30.69, 110.43, -40.30, -5.68, 71.59, -12.32, 3.96, 
-82.00, 30.73, 109.55, -40.36, -5.67, 71.33, -12.33, 3.97, 
-81.00, 30.82, 109.81, -40.50, -5.66, 71.06, -12.35, 3.96, 
-80.00, 30.95, 108.60, -39.71, -5.66, 70.80, -12.37, 3.97, 
-79.00, 30.82, 109.08, -40.04, -5.65, 70.54, -12.39, 3.97, 
-78.00, 30.76, 107.73, -40.31, -5.64, 70.28, -12.41, 3.97, 
-77.00, 30.72, 109.05, -40.55, -5.63, 70.02, -12.42, 3.97, 
-76.00, 30.94, 108.40, -40.39, -5.62, 69.76, -12.44, 3.97, 
-75.00, 31.00, 108.06, -40.71, -5.61, 69.50, -12.46, 3.97, 
-74.00, 30.82, 106.83, -39.93, -5.60, 69.23, -12.48, 3.97, 
-73.00, 30.99, 107.54, -39.92, -5.59, 68.97, -12.50, 3.97, 
-72.00, 30.92, 106.46, -39.93, -5.59, 68.71, -12.51, 3.98, 
-71.00, 30.69, 107.97, -40.05, -5.58, 68.45, -12.53, 3.97, 
-70.00, 30.78, 106.96, -40.42, -5.57, 68.19, -12.55, 3.98, 
-69.00, 30.74, 106.98, -40.18, -5.56, 67.93, -12.57, 3.97, 
-68.00, 30.85, 105.60, -39.83, -5.55, 67.66, -12.59, 3.98, 
-67.00, 30.84, 106.52, -40.04, -5.54, 67.40, -12.61, 3.98, 
-66.00, 30.90, 105.41, -40.30, -5.53, 67.14, -12.62, 3.99, 
-65.00, 31.16, 106.52, -39.86, -5.53, 66.88, -12.64, 3.98, 
-64.00, 30.96, 104.88, -39.98, -5.52, 66.62, -12.66, 3.98, 
-63.00, 31.01, 105.89, -40.47, -5.51, 66.35, -12.68, 3.98, 
-62.00, 31.06, 104.72, -40.40, -5.50, 66.09, -12.70, 3.98, 
-61.00, 30.95, 106.11, -40.89, -5.49, 65.83, -12.72, 3.98, 
-60.00, 30.62, 104.57, -40.29, -5.48, 65.57, -12.73, 3.99, 
-59.00, 30.84, 105.24, -40.62, -5.47, 65.30, -12.75, 3.98, 
-58.00, 30.54, 103.53, -40.58, -5.46, 65.04, -12.77, 3.99, 
-57.00, 30.90, 104.34, -40.60, -5.46, 64.78, -12.79, 3.98, 
-56.00, 30.52, 103.50, -40.03, -5.45, 64.52, -12.81, 3.99, 
-55.00, 30.77, 104.21, -40.56, -5.44, 64.25, -12.83, 3.98, 
-54.00, 30.52, 103.27, -40.72, -5.43, 63.99, -12.84, 3.99, 
-53.00, 30.89, 103.10, -40.38, -5.42, 63.73, -12.86, 3.98, 
-52.00, 30.58, 102.26, -40.24, -5.41, 63.47, -12.88, 3.98, 
-51.00, 30.47, 102.12, -40.41, -5.40, 63.20, -12.90, 3.99, 
-50.00, 30.59, 102.17, -40.37, -5.39, 62.94, -12.92, 3.99, 
-49.00, 30.55, 102.48, -40.33, -5.39, 62.68, -12.94, 3.99, 
-48.00, 30.25, 101.76, -40.48, -5.38, 62.42, -12.95, 3.99, 
-47.00, 30.68, 100.88, -40.15, -5.37, 62.15, -12.97, 3.99, 
-46.00, 30.79, 100.90, -40.59, -5.36, 61.89, -12.99, 3.99, 
-45.00, 30.87, 100.20, -40.51, -5.35, 61.63, -13.01, 3.99, 
-44.00, 31.00, 101.03, -40.35, -5.34, 61.36, -13.03, 3.99, 
-43.00, 30.92, 100.15, -40.78, -5.33, 61.10, -13.05, 3.99, 
-42.00, 30.91, 100.81, -40.75, -5.32, 60.84, -13.07, 3.99, 
-41.00, 30.81, 99.85, -40.95, -5.32, 60.57, -13.08, 3.99, 
-40.00, 30.77, 99.93, -40.42, -5.31, 60.31, -13.10, 3.99, 
-39.00, 30.72, 99.17, -40.70, -5.30, 60.05, -13.12, 3.99, 
-38.00, 30.90, 100.96, -40.80, -5.29, 59.78, -13.14, 3.99, 
-37.00, 31.13, 99.04, -40.80, -5.28, 59.52, -13.16, 3.99, 
-36.00, 31.16, 99.60, -40.71, -5.27, 59.26, -13.18, 3.99, 
-35.00, 30.99, 98.42, -41.13, -5.26, 58.99, -13.20, 3.99, 
-34.00, 30.85, 99.17, -41.12, -5.25, 58.73, -13.21, 3.99, 
-33.00, 31.22, 98.48, -40.85, -5.25, 58.47, -13.23, 3.99, 
-32.00, 31.12, 97.92, -40.72, -5.24, 58.20, -13.25, 4.00, 
-31.00, 30.86, 97.01, -40.60, -5.23, 57.94, -13.27, 4.00, 
-30.00, 31.21, 97.60, -40.69, -5.22, 57.68, -13.29, 4.00, 
-29.00, 31.23, 97.02, -40.55, -5.21, 57.41, -13.31, 4.00, 
-28.00, 31.13, 97.21, -41.12, -5.20, 57.15, -13.33, 4.00, 
-27.00, 30.99, 96.73, -41.02, -5.19, 56.88, -13.35, 4.00, 
-26.00, 31.10, 96.46, -40.98, -5.18, 56.62, -13.36, 4.00, 
-25.00, 30.87, 95.85, -40.71, -5.18, 56.36, -13.38, 4.00, 
-24.00, 30.57, 95.87, -41.17, -5.17, 56.09, -13.40, 4.00, 
-23.00, 30.94, 95.96, -41.11, -5.16, 55.83, -13.42, 4.00, 
-22.00, 30.80, 95.36, -40.83, -5.15, 55.57, -13.44, 4.00, 
-21.00, 31.05, 95.51, -40.92, -5.14, 55.30, -13.46, 4.00, 
-20.00, 31.03, 94.64, -40.46, -5.13, 55.04, -13.48, 4.00, 
-19.00, 31.03, 94.86, -40.41, -5.12, 54.77, -13.50, 4.00, 
-18.00, 30.75, 94.55, -41.22, -5.11, 54.51, -13.51, 4.00, 
-17.00, 31.16, 94.88, -40.69, -5.10, 54.25, -13.53, 4.00, 
-16.00, 31.00, 93.62, -40.67, -5.10, 53.98, -13.55, 4.00, 
-15.00, 31.14, 93.78, -41.06, -5.09, 53.72, -13.57, 4.00, 
-14.00, 31.28, 93.31, -41.36, -5.08, 53.45, -13.59, 4.00, 
-13.00, 31.10, 93.23, -41.85, -5.07, 53.19, -13.61, 4.00, 
-12.00, 31.55, 92.66, -41.95, -5.06, 52.92, -13.63, 4.00, 
-11.00, 31.12, 92.62, -41.53, -5.05, 52.66, -13.65, 4.00, 
-10.00, 31.59, 92.44, -41.65, -5.04, 52.40, -13.67, 4.00, 
-9.00, 31.46, 92.24, -41.77, -5.03, 52.13, -13.68, 4.00, 
-8.00, 31.50, 91.67, -41.63, -5.03, 51.87, -13.70, 4.00, 
-7.00, 31.29, 91.56, -41.72, -5.02, 51.60, -13.72, 4.00, 
-6.00, 31.13, 91.20, -41.90, -5.01, 51.34, -13.74, 4.00, 
-5.00, 31.25, 91.23, -42.18, -5.00, 51.07, -13.76, 4.00, 
-4.00, 31.29, 90.84, -41.78, -4.99, 50.81, -13.78, 4.00, 
-3.00, 31.14, 90.36, -41.52, -4.98, 50.55, -13.80, 4.00, 
-2.00, 31.23, 90.37, -42.00, -4.97, 50.28, -13.82, 4.00, 
-1.00, 31.35, 90.13, -41.86, -4.96, 50.02, -13.84, 4.00, 
0.00, 31.10, 90.13, -41.64, -4.95, 49.75, -13.86, 4.00, 
1.00, 31.42, 89.41, -41.94, -4.95, 49.49, -13.87, 3.99, 
2.00, 31.37, 89.11, -41.81, -4.94, 49.22, -13.89, 4.00, 
3.00, 31.56, 88.99, -41.35, -4.93, 48.96, -13.91, 4.00, 
4.00, 31.29, 88.95, -41.81, -4.92, 48.69, -13.93, 4.00, 
5.00, 31.70, 88.51, -41.99, -4.91, 48.43, -13.95, 4.00, 
6.00, 31.39, 88.30, -41.49, -4.90, 48.16, -13.97, 4.00, 
7.00, 31.33, 88.00, -41.82, -4.89, 47.90, -13.99, 4.00, 
8.00, 31.27, 87.72, -41.43, -4.88, 47.63, -14.01, 4.00, 
9.00, 31.48, 87.47, -41.10, -4.88, 47.37, -14.03, 4.00, 
10.00, 31.72, 87.09, -41.38, -4.87, 47.11, -14.05, 4.00, 
11.00, 31.41, 86.64, -42.20, -4.86, 46.84, -14.07, 4.00, 
12.00, 31.70, 86.45, -42.12, -4.85, 46.58, -14.09, 4.00, 
13.00, 31.91, 86.29, -41.88, -4.84, 46.31, -14.10, 4.00, 
14.00, 31.67, 86.10, -41.67, -4.83, 46.05, -14.12, 4.00, 
15.00, 31.65, 85.65, -41.96, -4.82, 45.78, -14.14, 4.00, 
16.00, 31.72, 85.51, -42.29, -4.81, 45.52, -14.16, 4.00, 
17.00, 31.79, 84.80, -42.32, -4.80, 45.25, -14.18, 4.00, 
18.00, 31.99, 85.09, -41.73, -4.80, 44.99, -14.20, 4.00, 
19.00, 31.87, 84.67, -41.90, -4.79, 44.72, -14.22, 4.00, 
20.00, 31.79, 85.03, -41.48, -4.78, 44.46, -14.24, 4.00, 
21.00, 31.80, 83.72, -41.63, -4.77, 44.19, -14.26, 4.00, 
22.00, 31.90, 83.86, -41.75, -4.76, 43.93, -14.28, 4.00, 
23.00, 31.68, 83.65, -41.70, -4.75, 43.66, -14.30, 4.00, 
24.00, 31.61, 83.75, -41.74, -4.74, 43.40, -14.32, 4.00, 
25.00, 31.57, 83.30, -42.08, -4.73, 43.13, -14.34, 4.00, 
26.00, 31.59, 83.25, -41.80, -4.72, 42.87, -14.36, 4.00, 
27.00, 31.86, 82.57, -41.86, -4.72, 42.60, -14.37, 4.00, 
28.00, 31.78, 82.23, -41.86, -4.71, 42.34, -14.39, 4.00, 
29.00, 31.58, 82.79, -42.03, -4.70, 42.07, -14.41, 4.00, 
30.00, 31.46, 82.01, -42.25, -4.69, 41.81, -14.43, 4.00, 
31.00, 31.68, 81.44, -41.81, -4.68, 41.54, -14.45, 4.00, 
32.00, 31.71, 81.10, -41.73, -4.67, 41.28, -14.47, 4.00, 
33.00, 31.18, 81.36, -42.22, -4.66, 41.02, -14.49, 3.99, 
34.00, 31.41, 81.47, -42.17, -4.65, 40.75, -14.51, 3.99, 
35.00, 31.55, 81.54, -42.53, -4.65, 40.49, -14.53, 3.99, 
36.00, 31.58, 79.75, -42.05, -4.64, 40.22, -14.55, 3.99, 
37.00, 31.54, 79.96, -41.82, -4.63, 39.96, -14.57, 3.99, 
38.00, 31.48, 79.93, -41.13, -4.62, 39.69, -14.59, 3.99, 
39.00, 31.59, 80.39, -41.72, -4.61, 39.43, -14.61, 3.99, 
40.00, 31.70, 79.40, -41.54, -4.60, 39.16, -14.63, 3.99, 
41.00, 31.49, 79.26, -41.55, -4.59, 38.90, -14.65, 3.99, 
42.00, 31.74, 78.80, -42.02, -4.58, 38.63, -14.67, 3.99, 
43.00, 31.64, 79.32, -41.59, -4.57, 38.37, -14.69, 3.99, 
44.00, 31.84, 78.43, -41.81, -4.57, 38.10, -14.71, 3.99, 
45.00, 31.34, 78.99, -42.03, -4.56, 37.84, -14.73, 3.99, 
46.00, 31.73, 77.39, -41.93, -4.55, 37.57, -14.74, 3.99, 
47.00, 31.67, 77.72, -42.13, -4.54, 37.31, -14.76, 3.99, 
48.00, 31.48, 77.15, -42.18, -4.53, 37.04, -14.78, 3.99, 
49.00, 31.47, 78.19, -42.05, -4.52, 36.78, -14.80, 3.99, 
50.00, 31.39, 77.09, -42.38, -4.51, 36.51, -14.82, 3.99, 
51.00, 31.66, 77.39, -41.89, -4.50, 36.25, -14.84, 3.99, 
52.00, 31.75, 76.02, -41.62, -4.50, 35.98, -14.86, 3.99, 
53.00, 31.84, 76.74, -42.13, -4.49, 35.72, -14.88, 3.98, 
54.00, 31.73, 75.80, -41.95, -4.48, 35.45, -14.90, 3.99, 
55.00, 31.97, 76.00, -42.34, -4.47, 35.19, -14.92, 3.98, 
56.00, 31.44, 75.59, -42.45, -4.46, 34.92, -14.94, 3.98, 
57.00, 31.56, 76.06, -42.25, -4.45, 34.66, -14.96, 3.98, 
58.00, 31.61, 74.40, -42.35, -4.44, 34.39, -14.98, 3.98, 
59.00, 31.70, 74.62, -42.36, -4.43, 34.13, -15.00, 3.98, 
60.00, 31.86, 73.89, -42.14, -4.42, 33.87, -15.02, 3.98, 
61.00, 31.99, 75.07, -42.13, -4.42, 33.60, -15.04, 3.98, 
62.00, 31.40, 74.28, -41.75, -4.41, 33.34, -15.06, 3.98, 
63.00, 31.42, 74.72, -41.74, -4.40, 33.07, -15.08, 3.98, 
64.00, 31.43, 72.87, -42.04, -4.39, 32.81, -15.10, 3.98, 
65.00, 31.76, 73.39, -42.07, -4.38, 32.54, -15.12, 3.98, 
66.00, 31.75, 72.51, -42.36, -4.37, 32.28, -15.14, 3.98, 
67.00, 31.97, 73.17, -42.50, -4.36, 32.01, -15.16, 3.98, 
68.00, 31.96, 72.50, -42.26, -4.35, 31.75, -15.18, 3.98, 
69.00, 31.98, 72.24, -42.23, -4.35, 31.48, -15.20, 3.98, 
70.00, 31.92, 71.33, -42.41, -4.34, 31.22, -15.22, 3.97, 
71.00, 32.12, 72.10, -42.98, -4.33, 30.95, -15.24, 3.99, 
72.00, 31.76, 71.20, -42.35, -4.32, 30.69, -15.26, 3.97, 
73.00, 31.73, 71.71, -42.57, -4.31, 30.43, -15.28, 3.97, 
74.00, 31.77, 70.54, -42.70, -4.30, 30.16, -15.30, 3.97, 
75.00, 31.97, 70.91, -42.44, -4.29, 29.90, -15.32, 3.98, 
76.00, 31.78, 69.77, -42.72, -4.28, 29.63, -15.34, 3.97, 
77.00, 31.73, 71.12, -42.46, -4.28, 29.37, -15.36, 3.98, 
78.00, 31.68, 69.24, -41.94, -4.27, 29.10, -15.38, 3.97, 
79.00, 31.55, 70.78, -42.34, -4.26, 28.84, -15.40, 3.98, 
80.00, 31.60, 69.59, -42.36, -4.25, 28.57, -15.42, 3.97, 
81.00, 31.58, 70.02, -42.85, -4.24, 28.31, -15.44, 3.98, 
82.00, 31.65, 68.74, -42.34, -4.23, 28.05, -15.46, 3.96, 
83.00, 31.73, 70.20, -42.58, -4.22, 27.78, -15.48, 3.96, 
84.00, 31.91, 68.30, -42.20, -4.21, 27.52, -15.50, 3.96, 
85.00, 31.86, 69.47, -42.17, -4.21, 27.25, -15.52, 3.96, 
86.00, 31.94, 67.42, -42.00, -4.20, 26.99, -15.54, 3.96, 
87.00, 31.98, 68.33, -42.30, -4.19, 26.72, -15.56, 3.96, 
88.00, 32.11, 67.21, -41.97, -4.18, 26.46, -15.58, 3.96, 
89.00, 32.19, 68.81, -42.31, -4.17, 26.20, -15.60, 3.96, 
90.00, 32.20, 67.29, -42.27, -4.16, 25.93, -15.62, 3.96, 
91.00, 32.15, 67.29, -42.10, -4.15, 25.67, -15.64, 3.97, 
92.00, 32.39, 65.60, -42.39, -4.14, 25.40, -15.66, 3.96, 
93.00, 32.00, 67.01, -42.93, -4.14, 25.14, -15.68, 3.97, 
94.00, 31.76, 65.46, -42.51, -4.13, 24.88, -15.70, 3.95, 
95.00, 31.86, 67.50, -42.95, -4.12, 24.61, -15.72, 3.95, 
96.00, 32.05, 66.40, -42.80, -4.11, 24.35, -15.74, 3.95, 
97.00, 32.31, 67.33, -42.47, -4.10, 24.08, -15.76, 3.95, 
98.00, 31.90, 65.64, -42.27, -4.09, 23.82, -15.78, 3.95, 
99.00, 32.15, 65.70, -42.68, -4.08, 23.56, -15.80, 3.95, 
100.00, 32.01, 64.46, -42.68, -4.07, 23.29, -15.82, 3.95, 
101.00, 32.13, 66.32, -42.21, -4.07, 23.03, -15.84, 3.95, 
102.00, 32.04, 65.08, -42.54, -4.06, 22.77, -15.86, 3.95, 
103.00, 31.89, 65.43, -42.50, -4.05, 22.50, -15.88, 3.95, 
104.00, 31.99, 63.45, -42.31, -4.04, 22.24, -15.90, 3.95, 
105.00, 31.97, 64.17, -42.55, -4.03, 21.97, -15.92, 3.95, 
106.00, 31.91, 63.29, -42.57, -4.02, 21.71, -15.94, 3.96, 
107.00, 31.92, 63.57, -42.56, -4.01, 21.45, -15.96, 3.95, 
108.00, 31.84, 63.10, -42.49, -4.00, 21.18, -15.98, 3.96, 
109.00, 31.81, 62.46, -42.46, -4.00, 20.92, -16.00, 3.94, 
110.00, 31.82, 62.28, -43.17, -3.99, 20.66, -16.02, 3.95, 
111.00, 31.80, 61.98, -43.10, -3.98, 20.39, -16.04, 3.94, 
112.00, 31.49, 62.00, -43.33, -3.97, 20.13, -16.06, 3.95, 
113.00, 31.71, 62.58, -42.72, -3.96, 19.87, -16.08, 3.94, 
114.00, 31.82, 62.09, -43.67, -3.95, 19.60, -16.10, 3.95, 
115.00, 31.86, 62.51, -43.33, -3.94, 19.34, -16.13, 3.94, 
116.00, 32.12, 60.77, -43.24, -3.94, 19.08, -16.15, 3.94, 
117.00, 32.46, 60.85, -43.24, -3.93, 18.81, -16.17, 3.94, 
118.00, 32.51, 59.55, -43.59, -3.92, 18.55, -16.19, 3.94, 
119.00, 32.27, 60.61, -43.61, -3.91, 18.29, -16.21, 3.94, 
120.00, 32.47, 59.86, -43.35, -3.90, 18.03, -16.23, 3.93, 
121.00, 32.38, 61.17, -42.71, -3.89, 17.76, -16.25, 3.94, 
122.00, 32.10, 59.71, -43.23, -3.88, 17.50, -16.27, 3.93, 
123.00, 32.08, 60.68, -42.88, -3.87, 17.24, -16.29, 3.94, 
124.00, 32.10, 58.11, -43.10, -3.87, 16.97, -16.31, 3.93, 
125.00, 32.45, 59.39, -43.21, -3.86, 16.71, -16.33, 3.94, 
126.00, 32.21, 57.95, -42.80, -3.85, 16.45, -16.35, 3.93, 
127.00, 31.98, 59.14, -42.98, -3.84, 16.19, -16.37, 3.94, 
128.00, 32.15, 58.14, -43.18, -3.83, 15.92, -16.39, 3.92, 
129.00, 31.90, 59.74, -43.67, -3.82, 15.66, -16.41, 3.94, 
130.00, 32.12, 57.93, -43.86, -3.81, 15.40, -16.43, 3.92, 
131.00, 32.22, 58.66, -43.63, -3.81, 15.14, -16.45, 3.94, 
132.00, 32.15, 56.64, -43.66, -3.80, 14.87, -16.47, 3.92, 
133.00, 32.32, 57.57, -43.89, -3.79, 14.61, -16.49, 3.94, 
134.00, 32.20, 55.71, -43.85, -3.78, 14.35, -16.52, 3.92, 
135.00, 32.15, 56.77, -43.74, -3.77, 14.09, -16.54, 3.93, 
136.00, 32.23, 56.49, -43.67, -3.76, 13.83, -16.56, 3.92, 
137.00, 32.38, 56.65, -43.62, -3.75, 13.56, -16.58, 3.93, 
138.00, 32.41, 55.90, -43.43, -3.75, 13.30, -16.60, 3.92, 
139.00, 32.23, 56.91, -43.98, -3.74, 13.04, -16.62, 3.91, 
140.00, 32.12, 55.34, -43.29, -3.73, 12.78, -16.64, 3.92, 
141.00, 32.03, 55.15, -43.93, -3.72, 12.52, -16.66, 3.91, 
142.00, 32.06, 53.72, -43.76, -3.71, 12.25, -16.68, 3.92, 
143.00, 31.98, 54.86, -43.67, -3.70, 11.99, -16.70, 3.91, 
144.00, 32.39, 53.32, -43.63, -3.69, 11.73, -16.72, 3.92, 
145.00, 32.55, 54.70, -43.56, -3.69, 11.47, -16.74, 3.90, 
146.00, 32.29, 52.96, -43.44, -3.68, 11.21, -16.76, 3.92, 
147.00, 32.31, 54.91, -43.60, -3.67, 10.95, -16.78, 3.90, 
148.00, 32.13, 53.10, -44.40, -3.66, 10.68, -16.80, 3.92, 
149.00, 32.43, 54.74, -43.96, -3.65, 10.42, -16.83, 3.90, 
150.00, 32.55, 52.48, -43.59, -3.64, 10.16, -16.85, 3.92, 
151.00, 32.61, 53.34, -43.42, -3.63, 9.90, -16.87, 3.90, 
152.00, 32.39, 51.65, -43.26, -3.63, 9.64, -16.89, 3.91, 
153.00, 32.55, 53.27, -43.72, -3.62, 9.38, -16.91, 3.89, 
154.00, 32.57, 51.95, -43.51, -3.61, 9.12, -16.93, 3.91, 
155.00, 32.32, 53.34, -44.16, -3.60, 8.86, -16.95, 3.89, 
156.00, 32.63, 51.11, -44.09, -3.59, 8.59, -16.97, 3.91, 
157.00, 32.28, 52.40, -44.00, -3.58, 8.33, -16.99, 3.90, 
158.00, 32.93, 50.30, -43.51, -3.58, 8.07, -17.01, 3.91, 
159.00, 32.71, 51.38, -43.70, -3.57, 7.81, -17.03, 3.90, 
160.00, 32.44, 50.50, -43.87, -3.56, 7.55, -17.06, 3.91, 
161.00, 32.68, 51.97, -43.98, -3.55, 7.29, -17.08, 3.90, 
162.00, 32.59, 50.15, -43.99, -3.54, 7.03, -17.10, 3.89, 
163.00, 32.60, 50.43, -43.81, -3.53, 6.77, -17.12, 3.90, 
164.00, 32.61, 49.47, -43.71, -3.52, 6.51, -17.14, 3.88, 
165.00, 32.14, 49.47, -43.76, -3.52, 6.25, -17.16, 3.90, 
166.00, 32.23, 49.39, -43.83, -3.51, 5.99, -17.18, 3.88, 
167.00, 32.36, 50.42, -43.98, -3.50, 5.73, -17.20, 3.90, 
168.00, 32.47, 49.08, -44.17, -3.49, 5.47, -17.22, 3.88, 
169.00, 32.27, 48.59, -43.90, -3.48, 5.21, -17.24, 3.90, 
170.00, 32.24, 47.60, -43.90, -3.47, 4.95, -17.26, 3.88, 
171.00, 32.51, 48.00, -44.03, -3.47, 4.69, -17.29, 3.90, 
172.00, 32.43, 47.63, -43.89, -3.46, 4.43, -17.31, 3.87, 
173.00, 32.62, 48.29, -44.29, -3.45, 4.17, -17.33, 3.89, 
174.00, 32.20, 48.13, -43.95, -3.44, 3.91, -17.35, 3.87, 
175.00, 32.17, 47.30, -43.79, -3.43, 3.65, -17.37, 3.89, 
176.00, 32.06, 46.94, -43.86, -3.42, 3.39, -17.39, 3.87, 
177.00, 32.48, 46.06, -44.01, -3.42, 3.13, -17.41, 3.89, 
178.00, 32.15, 47.47, -44.27, -3.41, 2.87, -17.43, 3.87, 
179.00, 32.23, 46.64, -44.07, -3.40, 2.61, -17.45, 3.89, 
180.00, 32.54, 46.63, -43.97, -3.39, 2.35, -17.48, 3.87, 
181.00, 32.39, 45.27, -43.93, -3.38, 2.09, -17.50, 3.89, 
182.00, 32.13, 45.95, -44.22, -3.37, 1.83, -17.52, 3.86, 
183.00, 32.29, 44.98, -44.20, -3.37, 1.57, -17.54, 3.88, 
184.00, 32.21, 45.64, -44.21, -3.36, 1.32, -17.56, 3.87, 
185.00, 32.18, 45.43, -44.18, -3.35, 1.06, -17.58, 3.88, 
186.00, 32.06, 45.32, -43.97, -3.34, 0.80, -17.60, 3.87, 
187.00, 32.11, 44.08, -44.17, -3.33, 0.54, -17.62, 3.88, 
188.00, 32.13, 44.75, -44.37, -3.32, 0.28, -17.65, 3.87, 
189.00, 32.27, 43.57, -44.03, -3.32, 0.02, -17.67, 3.88, 
190.00, 31.99, 44.91, -44.49, -3.31, -0.24, -17.69, 3.87, 
191.00, 32.24, 43.31, -44.15, -3.30, -0.49, -17.71, 3.86, 
192.00, 32.17, 44.04, -44.38, -3.29, -0.75, -17.73, 3.87, 
193.00, 32.28, 42.51, -44.64, -3.28, -1.01, -17.75, 3.85, 
194.00, 32.31, 44.07, -44.56, -3.27, -1.27, -17.77, 3.87, 
195.00, 32.37, 43.15, -44.49, -3.27, -1.53, -17.79, 3.86, 
196.00, 32.65, 43.88, -44.14, -3.26, -1.78, -17.82, 3.86, 
197.00, 32.79, 41.97, -45.29, -3.25, -2.04, -17.84, 3.85, 
198.00, 32.33, 42.46, -44.27, -3.24, -2.30, -17.86, 3.86, 
199.00, 32.34, 41.95, -44.01, -3.23, -2.56, -17.88, 3.84, 
200.00, 32.76, 43.17, -44.45, -3.22, -2.82, -17.90, 3.86, 
201.00, 32.14, 42.41, -43.78, -3.22, -3.07, -17.92, 3.84, 
202.00, 32.35, 41.98, -44.10, -3.21, -3.33, -17.94, 3.86, 
203.00, 32.55, 40.99, -44.36, -3.20, -3.59, -17.96, 3.84, 
204.00, 32.82, 40.89, -43.43, -3.19, -3.84, -17.99, 3.86, 
205.00, 32.32, 41.76, -44.12, -3.18, -4.10, -18.01, 3.83, 
206.00, 32.38, 41.28, -44.20, -3.18, -4.36, -18.03, 3.85, 
207.00, 32.74, 40.84, -44.33, -3.17, -4.62, -18.05, 3.84, 
208.00, 32.81, 40.23, -44.49, -3.16, -4.87, -18.07, 3.85, 
209.00, 32.48, 40.03, -44.67, -3.15, -5.13, -18.09, 3.84, 
210.00, 32.73, 39.32, -44.52, -3.14, -5.39, -18.11, 3.85, 
211.00, 32.45, 39.63, -44.47, -3.14, -5.64, -18.14, 3.84, 
212.00, 32.55, 38.93, -44.60, -3.13, -5.90, -18.16, 3.85, 
213.00, 32.57, 39.13, -44.77, -3.12, -6.16, -18.18, 3.84, 
214.00, 32.61, 37.92, -44.91, -3.11, -6.41, -18.20, 3.85, 
215.00, 32.65, 38.41, -44.16, -3.10, -6.67, -18.22, 3.84, 
216.00, 32.50, 37.32, -44.86, -3.09, -6.92, -18.24, 3.84, 
217.00, 32.36, 38.44, -45.11, -3.09, -7.18, -18.27, 3.84, 
218.00, 32.47, 38.45, -45.09, -3.08, -7.44, -18.29, 3.82, 
219.00, 32.79, 37.71, -44.94, -3.07, -7.69, -18.31, 3.84, 
220.00, 32.59, 36.78, -44.80, -3.06, -7.95, -18.33, 3.83, 
221.00, 32.55, 36.96, -44.86, -3.05, -8.20, -18.35, 3.84, 
222.00, 32.79, 36.80, -44.76, -3.05, -8.46, -18.37, 3.81, 
223.00, 32.55, 37.09, -44.91, -3.04, -8.71, -18.39, 3.83, 
224.00, 32.90, 36.03, -44.65, -3.03, -8.97, -18.42, 3.83, 
225.00, 32.82, 36.45, -45.69, -3.02, -9.22, -18.44, 3.83, 
226.00, 32.90, 35.94, -45.04, -3.01, -9.48, -18.46, 3.83, 
227.00, 32.73, 35.50, -45.16, -3.01, -9.73, -18.48, 3.83, 
228.00, 32.70, 35.65, -45.32, -3.00, -9.99, -18.50, 3.83, 
229.00, 32.79, 35.48, -45.11, -2.99, -10.24, -18.52, 3.83, 
230.00, 32.72, 34.73, -45.27, -2.98, -10.50, -18.55, 3.83, 
231.00, 32.49, 34.88, -45.50, -2.97, -10.75, -18.57, 3.83, 
232.00, 32.60, 34.28, -45.46, -2.97, -11.01, -18.59, 3.82, 
233.00, 32.60, 34.24, -45.08, -2.96, -11.26, -18.61, 3.82, 
234.00, 32.54, 34.14, -44.90, -2.95, -11.52, -18.63, 3.82, 
235.00, 32.81, 34.20, -44.72, -2.94, -11.77, -18.66, 3.79, 
236.00, 32.65, 33.53, -45.05, -2.93, -12.02, -18.68, 3.82, 
237.00, 32.58, 33.38, -45.35, -2.93, -12.28, -18.70, 3.80, 
238.00, 32.71, 33.11, -44.95, -2.92, -12.53, -18.72, 3.81, 
239.00, 32.95, 33.26, -45.13, -2.91, -12.78, -18.74, 3.81, 
240.00, 32.72, 33.19, -45.34, -2.90, -13.04, -18.76, 3.81, 
241.00, 32.74, 32.65, -45.49, -2.90, -13.29, -18.79, 3.81, 
242.00, 32.55, 32.25, -45.63, -2.89, -13.54, -18.81, 3.81, 
243.00, 32.68, 31.86, -45.33, -2.88, -13.80, -18.83, 3.80, 
244.00, 32.73, 32.22, -45.59, -2.87, -14.05, -18.85, 3.80, 
245.00, 33.12, 31.89, -45.48, -2.86, -14.30, -18.87, 3.80, 
246.00, 33.03, 31.62, -45.46, -2.86, -14.56, -18.89, 3.79, 
247.00, 32.98, 31.79, -44.96, -2.85, -14.81, -18.92, 3.79, 
248.00, 33.46, 31.54, -45.70, -2.84, -15.06, -18.94, 3.79, 
249.00, 33.36, 31.11, -45.64, -2.83, -15.31, -18.96, 3.79, 
250.00, 33.50, 30.56, -45.93, -2.82, -15.57, -18.98, 3.79, 
251.00, 33.27, 30.39, -45.49, -2.82, -15.82, -19.00, 3.79, 
252.00, 33.39, 30.31, -46.06, -2.81, -16.07, -19.03, 3.79, 
253.00, 33.20, 29.89, -45.71, -2.80, -16.32, -19.05, 3.79, 
254.00, 32.94, 29.81, -45.49, -2.79, -16.58, -19.07, 3.79, 
255.00, 32.91, 29.45, -45.27, -2.79, -16.83, -19.09, 3.79, 
