---START---
-255.00, 17.64, 168.37, -32.82, -7.07, 115.05, -9.40, 3.73, 
-254.00, 13.53, 160.14, -27.76, -7.06, 114.81, -9.42, 3.69, 
-253.00, 13.27, 161.88, -27.48, -7.05, 114.57, -9.43, 3.77, 
-252.00, 13.17, 161.46, -28.09, -7.05, 114.33, -9.45, 3.77, 
-251.00, 13.11, 160.62, -27.66, -7.04, 114.08, -9.46, 3.76, 
-250.00, 13.37, 160.68, -28.16, -7.03, 113.84, -9.48, 3.77, 
-249.00, 13.26, 160.88, -28.29, -7.02, 113.60, -9.49, 3.81, 
-248.00, 13.00, 161.41, -27.68, -7.02, 113.36, -9.51, 3.82, 
-247.00, 13.22, 161.43, -28.01, -7.01, 113.11, -9.53, 3.82, 
-246.00, 13.11, 160.81, -27.73, -7.00, 112.87, -9.54, 3.82, 
-245.00, 13.25, 161.28, -27.81, -6.99, 112.63, -9.56, 3.85, 
-244.00, 13.63, 161.05, -26.87, -6.99, 112.38, -9.57, 3.85, 
-243.00, 14.04, 161.22, -26.55, -6.98, 112.14, -9.59, 3.84, 
-242.00, 13.66, 160.43, -26.15, -6.97, 111.90, -9.61, 3.79, 
-241.00, 13.67, 159.36, -25.68, -6.96, 111.65, -9.62, 3.79, 
-240.00, 13.58, 160.13, -25.78, -6.96, 111.41, -9.64, 3.81, 
-239.00, 13.58, 160.48, -25.48, -6.95, 111.17, -9.65, 3.83, 
-238.00, 13.65, 160.62, -24.58, -6.94, 110.92, -9.67, 3.86, 
-237.00, 13.72, 159.58, -24.57, -6.93, 110.68, -9.69, 3.81, 
-236.00, 14.33, 157.95, -25.19, -6.93, 110.43, -9.70, 3.76, 
-235.00, 14.55, 157.40, -26.54, -6.92, 110.19, -9.72, 3.73, 
-234.00, 13.84, 156.96, -28.51, -6.91, 109.94, -9.73, 3.78, 
-233.00, 13.98, 155.92, -29.55, -6.90, 109.70, -9.75, 3.77, 
-232.00, 14.95, 154.76, -29.20, -6.90, 109.45, -9.77, 3.76, 
-231.00, 15.52, 154.41, -29.89, -6.89, 109.21, -9.78, 3.73, 
-230.00, 15.55, 154.94, -29.79, -6.88, 108.96, -9.80, 3.78, 
-229.00, 15.32, 154.55, -29.59, -6.87, 108.72, -9.82, 3.83, 
-228.00, 15.40, 154.84, -30.23, -6.87, 108.47, -9.83, 3.86, 
-227.00, 15.81, 155.00, -29.86, -6.86, 108.22, -9.85, 3.86, 
-226.00, 16.15, 154.05, -30.06, -6.85, 107.98, -9.86, 3.87, 
-225.00, 16.50, 153.48, -30.04, -6.84, 107.73, -9.88, 3.86, 
-224.00, 17.44, 152.15, -30.00, -6.84, 107.49, -9.90, 3.80, 
-223.00, 17.40, 152.02, -30.79, -6.83, 107.24, -9.91, 3.79, 
-222.00, 16.98, 150.96, -30.32, -6.82, 106.99, -9.93, 3.74, 
-221.00, 17.04, 151.05, -30.30, -6.81, 106.75, -9.95, 3.79, 
-220.00, 16.93, 152.18, -30.13, -6.81, 106.50, -9.96, 3.80, 
-219.00, 17.21, 151.77, -29.95, -6.80, 106.25, -9.98, 3.82, 
-218.00, 16.94, 151.11, -30.89, -6.79, 106.00, -9.99, 3.80, 
-217.00, 17.16, 151.70, -29.93, -6.78, 105.76, -10.01, 3.82, 
-216.00, 17.04, 150.19, -29.52, -6.77, 105.51, -10.03, 3.82, 
-215.00, 16.97, 150.90, -30.08, -6.77, 105.26, -10.04, 3.84, 
-214.00, 16.94, 150.72, -30.44, -6.76, 105.01, -10.06, 3.84, 
-213.00, 17.10, 150.09, -30.47, -6.75, 104.77, -10.08, 3.84, 
-212.00, 16.96, 150.66, -30.58, -6.74, 104.52, -10.09, 3.84, 
-211.00, 17.22, 148.89, -29.98, -6.74, 104.27, -10.11, 3.81, 
-210.00, 16.78, 149.24, -29.85, -6.73, 104.02, -10.13, 3.86, 
-209.00, 17.12, 149.40, -30.43, -6.72, 103.77, -10.14, 3.87, 
-208.00, 17.20, 149.00, -30.53, -6.71, 103.53, -10.16, 3.88, 
-207.00, 16.94, 150.40, -30.25, -6.71, 103.28, -10.17, 3.88, 
-206.00, 16.82, 149.56, -30.45, -6.70, 103.03, -10.19, 3.88, 
-205.00, 17.21, 149.38, -30.38, -6.69, 102.78, -10.21, 3.89, 
-204.00, 17.17, 149.81, -30.12, -6.68, 102.53, -10.22, 3.89, 
-203.00, 17.14, 149.03, -30.27, -6.67, 102.28, -10.24, 3.88, 
-202.00, 17.07, 148.43, -29.94, -6.67, 102.03, -10.26, 3.89, 
-201.00, 16.92, 148.50, -30.24, -6.66, 101.78, -10.27, 3.90, 
-200.00, 17.01, 147.19, -30.37, -6.65, 101.53, -10.29, 3.90, 
-199.00, 16.84, 147.71, -30.44, -6.64, 101.28, -10.31, 3.90, 
-198.00, 16.83, 146.68, -30.33, -6.63, 101.03, -10.32, 3.90, 
-197.00, 16.95, 146.28, -29.39, -6.63, 100.78, -10.34, 3.90, 
-196.00, 16.94, 147.37, -30.23, -6.62, 100.53, -10.36, 3.90, 
-195.00, 17.02, 146.57, -30.31, -6.61, 100.28, -10.37, 3.88, 
-194.00, 16.98, 147.11, -30.40, -6.60, 100.03, -10.39, 3.89, 
-193.00, 17.02, 146.30, -30.13, -6.60, 99.78, -10.41, 3.90, 
-192.00, 17.04, 145.07, -30.46, -6.59, 99.53, -10.42, 3.90, 
-191.00, 17.27, 145.84, -30.49, -6.58, 99.28, -10.44, 3.88, 
-190.00, 17.28, 145.17, -30.79, -6.57, 99.03, -10.46, 3.88, 
-189.00, 17.04, 145.09, -31.01, -6.56, 98.78, -10.47, 3.87, 
-188.00, 16.73, 144.63, -30.95, -6.56, 98.53, -10.49, 3.88, 
-187.00, 16.85, 143.64, -30.35, -6.55, 98.28, -10.51, 3.86, 
-186.00, 17.00, 144.26, -30.50, -6.54, 98.02, -10.52, 3.86, 
-185.00, 17.14, 142.39, -30.80, -6.53, 97.77, -10.54, 3.82, 
-184.00, 16.93, 143.73, -30.98, -6.52, 97.52, -10.56, 3.85, 
-183.00, 16.82, 142.38, -30.82, -6.52, 97.27, -10.57, 3.86, 
-182.00, 16.69, 141.94, -31.11, -6.51, 97.02, -10.59, 3.86, 
-181.00, 16.60, 142.43, -30.67, -6.50, 96.77, -10.61, 3.87, 
-180.00, 16.78, 141.44, -30.85, -6.49, 96.51, -10.62, 3.87, 
-179.00, 17.01, 142.73, -30.68, -6.48, 96.26, -10.64, 3.86, 
-178.00, 16.76, 141.98, -31.20, -6.48, 96.01, -10.66, 3.87, 
-177.00, 16.88, 143.28, -30.83, -6.47, 95.76, -10.67, 3.90, 
-176.00, 17.02, 142.19, -31.26, -6.46, 95.50, -10.69, 3.90, 
-175.00, 16.77, 141.66, -31.60, -6.45, 95.25, -10.71, 3.89, 
-174.00, 16.88, 141.95, -31.31, -6.44, 95.00, -10.73, 3.87, 
-173.00, 16.82, 140.01, -31.82, -6.44, 94.75, -10.74, 3.86, 
-172.00, 17.04, 140.75, -31.65, -6.43, 94.49, -10.76, 3.87, 
-171.00, 16.97, 139.22, -31.48, -6.42, 94.24, -10.78, 3.84, 
-170.00, 16.55, 139.37, -31.40, -6.41, 93.99, -10.79, 3.85, 
-169.00, 16.75, 139.00, -31.32, -6.40, 93.73, -10.81, 3.81, 
-168.00, 17.31, 137.62, -31.41, -6.39, 93.48, -10.83, 3.81, 
-167.00, 17.73, 139.04, -30.97, -6.39, 93.23, -10.84, 3.84, 
-166.00, 16.34, 138.30, -31.27, -6.38, 92.97, -10.86, 3.86, 
-165.00, 15.72, 138.58, -31.42, -6.37, 92.72, -10.88, 3.84, 
-164.00, 16.38, 137.99, -30.66, -6.36, 92.47, -10.90, 3.85, 
-163.00, 16.46, 137.67, -31.15, -6.35, 92.21, -10.91, 3.89, 
-162.00, 16.28, 138.92, -31.09, -6.35, 91.96, -10.93, 3.89, 
-161.00, 16.37, 137.85, -31.19, -6.34, 91.70, -10.95, 3.88, 
-160.00, 16.20, 137.63, -31.17, -6.33, 91.45, -10.96, 3.89, 
-159.00, 15.82, 137.35, -30.87, -6.32, 91.19, -10.98, 3.93, 
-158.00, 15.52, 137.40, -30.65, -6.31, 90.94, -11.00, 3.92, 
-157.00, 15.55, 138.47, -31.30, -6.30, 90.69, -11.01, 3.91, 
-156.00, 15.33, 136.47, -31.06, -6.30, 90.43, -11.03, 3.91, 
-155.00, 14.77, 137.47, -30.95, -6.29, 90.18, -11.05, 3.89, 
-154.00, 14.57, 136.76, -30.94, -6.28, 89.92, -11.07, 3.88, 
-153.00, 14.58, 136.41, -30.83, -6.27, 89.67, -11.08, 3.90, 
-152.00, 14.66, 136.35, -31.65, -6.26, 89.41, -11.10, 3.89, 
-151.00, 14.32, 134.29, -31.94, -6.26, 89.16, -11.12, 3.85, 
-150.00, 14.32, 135.25, -31.49, -6.25, 88.90, -11.13, 3.84, 
-149.00, 14.22, 134.46, -31.26, -6.24, 88.64, -11.15, 3.84, 
-148.00, 13.88, 134.88, -31.59, -6.23, 88.39, -11.17, 3.83, 
-147.00, 13.98, 134.83, -30.96, -6.22, 88.13, -11.19, 3.86, 
-146.00, 14.05, 136.46, -31.10, -6.21, 87.88, -11.20, 3.88, 
-145.00, 14.16, 134.96, -30.70, -6.21, 87.62, -11.22, 3.92, 
-144.00, 14.32, 135.76, -30.83, -6.20, 87.37, -11.24, 3.95, 
-143.00, 14.70, 135.07, -31.05, -6.19, 87.11, -11.26, 3.95, 
-142.00, 14.66, 134.31, -31.01, -6.18, 86.85, -11.27, 3.96, 
-141.00, 14.87, 135.65, -30.44, -6.17, 86.60, -11.29, 3.96, 
-140.00, 14.82, 134.36, -30.34, -6.16, 86.34, -11.31, 3.95, 
-139.00, 14.83, 135.86, -30.38, -6.16, 86.08, -11.32, 3.95, 
-138.00, 14.81, 134.20, -30.96, -6.15, 85.83, -11.34, 3.96, 
-137.00, 14.72, 134.88, -30.14, -6.14, 85.57, -11.36, 3.96, 
-136.00, 14.57, 132.98, -30.35, -6.13, 85.31, -11.38, 3.95, 
-135.00, 14.68, 132.67, -30.89, -6.12, 85.06, -11.39, 3.96, 
-134.00, 14.68, 133.61, -30.43, -6.11, 84.80, -11.41, 3.97, 
-133.00, 14.69, 132.49, -30.58, -6.11, 84.54, -11.43, 3.95, 
-132.00, 14.86, 134.01, -31.01, -6.10, 84.29, -11.45, 3.96, 
-131.00, 14.76, 132.42, -30.84, -6.09, 84.03, -11.46, 3.96, 
-130.00, 14.66, 132.32, -31.15, -6.08, 83.77, -11.48, 3.95, 
-129.00, 14.65, 131.90, -31.09, -6.07, 83.51, -11.50, 3.96, 
-128.00, 14.96, 131.82, -30.83, -6.06, 83.26, -11.52, 3.95, 
-127.00, 14.77, 132.91, -30.20, -6.06, 83.00, -11.53, 3.96, 
-126.00, 14.91, 130.96, -30.85, -6.05, 82.74, -11.55, 3.97, 
-125.00, 14.17, 131.21, -30.97, -6.04, 82.48, -11.57, 3.96, 
-124.00, 15.29, 129.58, -30.70, -6.03, 82.23, -11.59, 3.97, 
-123.00, 14.80, 131.32, -30.82, -6.02, 81.97, -11.60, 3.96, 
-122.00, 15.00, 130.94, -30.85, -6.01, 81.71, -11.62, 3.96, 
-121.00, 14.99, 129.95, -30.66, -6.01, 81.45, -11.64, 3.97, 
-120.00, 15.20, 130.26, -30.63, -6.00, 81.19, -11.66, 3.96, 
-119.00, 15.26, 128.93, -30.45, -5.99, 80.94, -11.67, 3.97, 
-118.00, 15.26, 130.50, -30.72, -5.98, 80.68, -11.69, 3.97, 
-117.00, 15.16, 128.42, -30.78, -5.97, 80.42, -11.71, 3.96, 
-116.00, 15.17, 128.01, -30.28, -5.96, 80.16, -11.73, 3.98, 
-115.00, 14.88, 129.26, -30.57, -5.95, 79.90, -11.74, 3.96, 
-114.00, 14.71, 128.09, -30.02, -5.95, 79.64, -11.76, 3.97, 
-113.00, 14.88, 129.17, -30.56, -5.94, 79.38, -11.78, 3.98, 
-112.00, 15.17, 126.87, -30.13, -5.93, 79.13, -11.80, 3.97, 
-111.00, 14.96, 127.53, -30.91, -5.92, 78.87, -11.82, 3.98, 
-110.00, 15.28, 128.34, -30.92, -5.91, 78.61, -11.83, 3.97, 
-109.00, 15.12, 127.48, -31.29, -5.90, 78.35, -11.85, 3.97, 
-108.00, 15.03, 128.31, -31.11, -5.90, 78.09, -11.87, 3.98, 
-107.00, 14.94, 126.06, -30.61, -5.89, 77.83, -11.89, 3.97, 
-106.00, 14.63, 127.78, -31.06, -5.88, 77.57, -11.90, 3.98, 
-105.00, 14.78, 126.80, -31.28, -5.87, 77.31, -11.92, 3.97, 
-104.00, 14.99, 126.30, -31.34, -5.86, 77.05, -11.94, 3.98, 
-103.00, 15.19, 126.69, -31.03, -5.85, 76.79, -11.96, 3.99, 
-102.00, 14.86, 125.07, -30.74, -5.84, 76.53, -11.98, 3.98, 
-101.00, 15.00, 126.75, -31.17, -5.84, 76.27, -11.99, 3.99, 
-100.00, 14.90, 124.10, -30.61, -5.83, 76.01, -12.01, 3.97, 
-99.00, 15.21, 125.00, -30.61, -5.82, 75.75, -12.03, 3.98, 
-98.00, 15.43, 124.72, -30.90, -5.81, 75.49, -12.05, 3.97, 
-97.00, 15.32, 125.02, -31.20, -5.80, 75.23, -12.06, 3.98, 
-96.00, 15.02, 125.07, -30.95, -5.79, 74.97, -12.08, 3.99, 
-95.00, 15.19, 123.22, -31.45, -5.78, 74.71, -12.10, 3.98, 
-94.00, 15.06, 124.84, -31.02, -5.78, 74.45, -12.12, 3.99, 
-93.00, 14.92, 122.48, -30.64, -5.77, 74.19, -12.14, 3.98, 
-92.00, 14.99, 124.31, -31.26, -5.76, 73.93, -12.15, 3.99, 
-91.00, 15.14, 121.72, -30.82, -5.75, 73.67, -12.17, 3.98, 
-90.00, 15.03, 123.03, -30.94, -5.74, 73.41, -12.19, 3.98, 
-89.00, 15.01, 121.96, -31.20, -5.73, 73.15, -12.21, 3.98, 
-88.00, 15.04, 123.27, -31.17, -5.72, 72.89, -12.23, 3.98, 
-87.00, 15.01, 122.97, -30.75, -5.72, 72.63, -12.24, 3.98, 
-86.00, 14.71, 121.18, -31.40, -5.71, 72.37, -12.26, 3.98, 
-85.00, 15.01, 122.62, -31.08, -5.70, 72.11, -12.28, 3.98, 
-84.00, 16.40, 121.08, -30.98, -5.69, 71.85, -12.30, 3.99, 
-83.00, 15.10, 121.37, -31.25, -5.68, 71.59, -12.32, 3.99, 
-82.00, 15.25, 120.50, -31.15, -5.67, 71.33, -12.33, 3.99, 
-81.00, 15.08, 121.25, -31.26, -5.66, 71.06, -12.35, 4.00, 
-80.00, 15.10, 120.62, -31.17, -5.66, 70.80, -12.37, 3.99, 
-79.00, 14.95, 119.43, -31.66, -5.65, 70.54, -12.39, 4.00, 
-78.00, 14.97, 121.02, -31.63, -5.64, 70.28, -12.41, 3.99, 
-77.00, 15.20, 119.83, -31.48, -5.63, 70.02, -12.42, 4.00, 
-76.00, 15.14, 119.59, -31.59, -5.62, 69.76, -12.44, 3.99, 
-75.00, 15.46, 119.92, -31.34, -5.61, 69.50, -12.46, 3.99, 
-74.00, 14.89, 118.74, -31.74, -5.60, 69.23, -12.48, 3.99, 
-73.00, 15.19, 119.04, -31.48, -5.59, 68.97, -12.50, 4.00, 
-72.00, 15.43, 118.47, -31.10, -5.59, 68.71, -12.51, 3.99, 
-71.00, 15.30, 118.68, -31.54, -5.58, 68.45, -12.53, 3.99, 
-70.00, 15.19, 118.17, -31.32, -5.57, 68.19, -12.55, 3.99, 
-69.00, 15.28, 117.60, -31.67, -5.56, 67.93, -12.57, 3.99, 
-68.00, 15.25, 118.24, -31.63, -5.55, 67.66, -12.59, 4.00, 
-67.00, 15.37, 116.25, -31.70, -5.54, 67.40, -12.61, 4.00, 
-66.00, 15.26, 117.39, -31.56, -5.53, 67.14, -12.62, 4.00, 
-65.00, 15.17, 116.88, -31.82, -5.53, 66.88, -12.64, 4.00, 
-64.00, 15.06, 116.16, -31.41, -5.52, 66.62, -12.66, 4.00, 
-63.00, 14.97, 116.96, -31.91, -5.51, 66.35, -12.68, 4.00, 
-62.00, 15.13, 115.40, -31.86, -5.50, 66.09, -12.70, 4.01, 
-61.00, 15.13, 115.76, -31.82, -5.49, 65.83, -12.72, 4.00, 
-60.00, 15.29, 116.08, -31.84, -5.48, 65.57, -12.73, 4.00, 
-59.00, 14.91, 114.73, -31.73, -5.47, 65.30, -12.75, 4.00, 
-58.00, 15.01, 115.36, -31.76, -5.46, 65.04, -12.77, 4.00, 
-57.00, 15.23, 114.64, -31.77, -5.46, 64.78, -12.79, 4.01, 
-56.00, 15.89, 114.75, -31.37, -5.45, 64.52, -12.81, 4.00, 
-55.00, 15.19, 114.21, -31.55, -5.44, 64.25, -12.83, 4.01, 
-54.00, 15.29, 114.57, -32.05, -5.43, 63.99, -12.84, 4.00, 
-53.00, 15.30, 114.03, -32.16, -5.42, 63.73, -12.86, 4.00, 
-52.00, 15.65, 113.24, -31.83, -5.41, 63.47, -12.88, 4.00, 
-51.00, 14.67, 113.33, -31.89, -5.40, 63.20, -12.90, 4.00, 
-50.00, 14.70, 112.15, -32.20, -5.39, 62.94, -12.92, 4.01, 
-49.00, 14.89, 113.16, -32.49, -5.39, 62.68, -12.94, 4.00, 
-48.00, 15.25, 112.52, -32.07, -5.38, 62.42, -12.95, 4.01, 
-47.00, 15.19, 112.02, -32.09, -5.37, 62.15, -12.97, 4.00, 
-46.00, 15.21, 112.70, -32.35, -5.36, 61.89, -12.99, 4.00, 
-45.00, 15.24, 111.34, -32.28, -5.35, 61.63, -13.01, 4.01, 
-44.00, 15.12, 111.87, -32.25, -5.34, 61.36, -13.03, 4.01, 
-43.00, 15.44, 110.77, -32.05, -5.33, 61.10, -13.05, 4.01, 
-42.00, 15.36, 110.73, -32.02, -5.32, 60.84, -13.07, 4.01, 
-41.00, 15.41, 110.68, -32.02, -5.32, 60.57, -13.08, 4.01, 
-40.00, 15.30, 110.41, -31.82, -5.31, 60.31, -13.10, 4.01, 
-39.00, 15.36, 110.83, -32.62, -5.30, 60.05, -13.12, 4.01, 
-38.00, 15.21, 110.51, -32.39, -5.29, 59.78, -13.14, 4.01, 
-37.00, 15.34, 110.02, -32.43, -5.28, 59.52, -13.16, 4.01, 
-36.00, 15.26, 110.35, -32.49, -5.27, 59.26, -13.18, 4.01, 
-35.00, 15.14, 109.19, -32.25, -5.26, 58.99, -13.20, 4.01, 
-34.00, 15.05, 109.74, -32.88, -5.25, 58.73, -13.21, 4.01, 
-33.00, 15.43, 109.25, -32.65, -5.25, 58.47, -13.23, 4.01, 
-32.00, 15.04, 108.69, -32.62, -5.24, 58.20, -13.25, 4.01, 
-31.00, 15.23, 108.56, -32.32, -5.23, 57.94, -13.27, 4.01, 
-30.00, 15.47, 107.71, -32.64, -5.22, 57.68, -13.29, 4.01, 
-29.00, 15.08, 107.68, -32.53, -5.21, 57.41, -13.31, 4.01, 
-28.00, 15.16, 107.50, -32.45, -5.20, 57.15, -13.33, 4.01, 
-27.00, 15.17, 106.93, -32.36, -5.19, 56.88, -13.35, 4.01, 
-26.00, 15.09, 107.17, -31.89, -5.18, 56.62, -13.36, 4.01, 
-25.00, 15.48, 106.66, -31.70, -5.18, 56.36, -13.38, 4.01, 
-24.00, 15.46, 106.77, -32.17, -5.17, 56.09, -13.40, 4.01, 
-23.00, 15.43, 106.78, -32.51, -5.16, 55.83, -13.42, 4.01, 
-22.00, 15.29, 105.88, -32.66, -5.15, 55.57, -13.44, 4.02, 
-21.00, 15.38, 105.63, -32.91, -5.14, 55.30, -13.46, 4.01, 
-20.00, 15.76, 105.00, -32.53, -5.13, 55.04, -13.48, 4.01, 
-19.00, 15.77, 104.81, -32.47, -5.12, 54.77, -13.50, 4.01, 
-18.00, 15.68, 104.84, -32.30, -5.11, 54.51, -13.51, 4.01, 
-17.00, 15.49, 104.51, -32.09, -5.10, 54.25, -13.53, 4.01, 
-16.00, 15.48, 104.29, -32.07, -5.10, 53.98, -13.55, 4.01, 
-15.00, 15.55, 103.83, -32.15, -5.09, 53.72, -13.57, 4.01, 
-14.00, 15.64, 103.66, -32.50, -5.08, 53.45, -13.59, 4.01, 
-13.00, 15.68, 103.54, -32.21, -5.07, 53.19, -13.61, 4.01, 
-12.00, 15.69, 102.86, -32.47, -5.06, 52.92, -13.63, 4.01, 
-11.00, 15.64, 103.38, -32.67, -5.05, 52.66, -13.65, 4.02, 
-10.00, 15.70, 102.69, -32.99, -5.04, 52.40, -13.67, 4.01, 
-9.00, 15.47, 102.56, -32.66, -5.03, 52.13, -13.68, 4.01, 
-8.00, 15.55, 102.14, -32.82, -5.03, 51.87, -13.70, 4.01, 
-7.00, 15.66, 102.05, -32.89, -5.02, 51.60, -13.72, 4.01, 
-6.00, 15.90, 101.81, -32.74, -5.01, 51.34, -13.74, 4.01, 
-5.00, 15.70, 101.66, -32.57, -5.00, 51.07, -13.76, 4.02, 
-4.00, 15.14, 101.53, -32.62, -4.99, 50.81, -13.78, 4.02, 
-3.00, 15.62, 101.41, -32.84, -4.98, 50.55, -13.80, 4.02, 
-2.00, 15.68, 101.32, -32.71, -4.97, 50.28, -13.82, 4.02, 
-1.00, 16.06, 100.87, -32.90, -4.96, 50.02, -13.84, 4.02, 
0.00, 15.71, 100.43, -33.09, -4.95, 49.75, -13.86, 4.02, 
1.00, 15.79, 100.43, -33.19, -4.95, 49.49, -13.87, 4.02, 
2.00, 15.89, 100.18, -32.94, -4.94, 49.22, -13.89, 4.02, 
3.00, 15.83, 100.05, -32.77, -4.93, 48.96, -13.91, 4.01, 
4.00, 15.67, 99.77, -33.10, -4.92, 48.69, -13.93, 4.01, 
5.00, 15.79, 99.29, -32.86, -4.91, 48.43, -13.95, 4.01, 
6.00, 15.84, 99.06, -33.42, -4.90, 48.16, -13.97, 4.01, 
7.00, 16.07, 98.82, -33.35, -4.89, 47.90, -13.99, 4.01, 
8.00, 16.09, 98.64, -33.33, -4.88, 47.63, -14.01, 4.01, 
9.00, 15.98, 98.55, -33.12, -4.88, 47.37, -14.03, 4.01, 
10.00, 15.79, 98.39, -33.38, -4.87, 47.11, -14.05, 4.01, 
11.00, 15.66, 97.44, -33.16, -4.86, 46.84, -14.07, 4.01, 
12.00, 15.88, 97.59, -33.22, -4.85, 46.58, -14.09, 4.01, 
13.00, 16.15, 97.21, -32.93, -4.84, 46.31, -14.10, 4.01, 
14.00, 15.90, 96.83, -33.10, -4.83, 46.05, -14.12, 4.01, 
15.00, 15.76, 96.69, -33.28, -4.82, 45.78, -14.14, 4.01, 
16.00, 16.42, 96.46, -33.23, -4.81, 45.52, -14.16, 4.01, 
17.00, 16.26, 96.59, -33.39, -4.80, 45.25, -14.18, 4.01, 
18.00, 16.09, 96.12, -33.02, -4.80, 44.99, -14.20, 4.01, 
19.00, 15.85, 95.69, -32.94, -4.79, 44.72, -14.22, 4.01, 
20.00, 15.90, 95.33, -32.99, -4.78, 44.46, -14.24, 4.01, 
21.00, 15.86, 94.91, -32.87, -4.77, 44.19, -14.26, 4.01, 
22.00, 16.11, 94.90, -32.82, -4.76, 43.93, -14.28, 4.01, 
23.00, 15.88, 94.71, -33.05, -4.75, 43.66, -14.30, 4.01, 
24.00, 16.02, 94.72, -32.79, -4.74, 43.40, -14.32, 4.01, 
25.00, 16.08, 94.47, -32.95, -4.73, 43.13, -14.34, 4.01, 
26.00, 15.93, 94.89, -33.10, -4.72, 42.87, -14.36, 4.01, 
27.00, 15.88, 94.01, -33.10, -4.72, 42.60, -14.37, 4.01, 
28.00, 15.69, 93.76, -33.36, -4.71, 42.34, -14.39, 4.01, 
29.00, 15.71, 93.23, -33.16, -4.70, 42.07, -14.41, 4.01, 
30.00, 16.00, 92.84, -33.67, -4.69, 41.81, -14.43, 4.01, 
31.00, 16.16, 92.50, -33.73, -4.68, 41.54, -14.45, 4.01, 
32.00, 16.22, 92.02, -33.05, -4.67, 41.28, -14.47, 4.01, 
33.00, 16.29, 92.70, -33.33, -4.66, 41.02, -14.49, 4.01, 
34.00, 16.19, 92.16, -33.57, -4.65, 40.75, -14.51, 4.01, 
35.00, 16.27, 92.20, -33.97, -4.65, 40.49, -14.53, 4.01, 
36.00, 16.02, 91.37, -34.03, -4.64, 40.22, -14.55, 4.01, 
37.00, 16.04, 91.05, -33.88, -4.63, 39.96, -14.57, 4.01, 
38.00, 15.95, 90.39, -33.53, -4.62, 39.69, -14.59, 4.01, 
39.00, 16.00, 90.08, -33.99, -4.61, 39.43, -14.61, 4.01, 
40.00, 16.18, 90.67, -33.72, -4.60, 39.16, -14.63, 4.01, 
41.00, 16.01, 90.19, -33.50, -4.59, 38.90, -14.65, 4.00, 
42.00, 15.90, 91.20, -33.66, -4.58, 38.63, -14.67, 4.01, 
43.00, 15.74, 89.62, -33.91, -4.57, 38.37, -14.69, 4.00, 
44.00, 15.82, 90.02, -33.99, -4.57, 38.10, -14.71, 4.00, 
45.00, 16.06, 88.68, -33.61, -4.56, 37.84, -14.73, 4.01, 
46.00, 16.03, 88.94, -33.73, -4.55, 37.57, -14.74, 4.00, 
47.00, 15.92, 89.28, -33.79, -4.54, 37.31, -14.76, 4.00, 
48.00, 15.61, 87.87, -34.00, -4.53, 37.04, -14.78, 4.00, 
49.00, 15.93, 88.44, -34.50, -4.52, 36.78, -14.80, 4.00, 
50.00, 16.02, 88.18, -34.29, -4.51, 36.51, -14.82, 4.01, 
51.00, 15.94, 88.00, -34.33, -4.50, 36.25, -14.84, 4.00, 
52.00, 15.80, 87.59, -34.47, -4.50, 35.98, -14.86, 4.00, 
53.00, 16.38, 88.02, -34.05, -4.49, 35.72, -14.88, 4.00, 
54.00, 16.02, 88.04, -33.57, -4.48, 35.45, -14.90, 4.00, 
55.00, 15.91, 87.30, -33.69, -4.47, 35.19, -14.92, 4.01, 
56.00, 16.04, 87.68, -34.17, -4.46, 34.92, -14.94, 4.00, 
57.00, 16.16, 86.13, -34.21, -4.45, 34.66, -14.96, 4.00, 
58.00, 15.89, 86.77, -33.81, -4.44, 34.39, -14.98, 4.00, 
59.00, 16.08, 85.48, -33.88, -4.43, 34.13, -15.00, 4.00, 
60.00, 16.28, 85.67, -34.11, -4.42, 33.87, -15.02, 4.00, 
61.00, 16.24, 85.43, -34.60, -4.42, 33.60, -15.04, 4.00, 
62.00, 16.27, 85.50, -34.26, -4.41, 33.34, -15.06, 4.00, 
63.00, 16.12, 85.41, -33.96, -4.40, 33.07, -15.08, 4.00, 
64.00, 16.14, 84.12, -34.06, -4.39, 32.81, -15.10, 3.99, 
65.00, 16.12, 85.26, -34.02, -4.38, 32.54, -15.12, 4.00, 
66.00, 16.17, 83.93, -34.22, -4.37, 32.28, -15.14, 3.99, 
67.00, 16.28, 84.56, -34.07, -4.36, 32.01, -15.16, 4.00, 
68.00, 16.69, 83.47, -34.26, -4.35, 31.75, -15.18, 3.99, 
69.00, 16.40, 83.05, -34.24, -4.35, 31.48, -15.20, 3.99, 
70.00, 16.48, 83.28, -33.90, -4.34, 31.22, -15.22, 4.00, 
71.00, 16.28, 82.51, -34.07, -4.33, 30.95, -15.24, 3.99, 
72.00, 16.12, 83.96, -33.93, -4.32, 30.69, -15.26, 3.99, 
73.00, 16.20, 82.41, -34.08, -4.31, 30.43, -15.28, 3.99, 
74.00, 15.95, 82.49, -34.61, -4.30, 30.16, -15.30, 3.99, 
75.00, 16.16, 81.05, -34.24, -4.29, 29.90, -15.32, 3.99, 
76.00, 16.31, 81.98, -34.43, -4.28, 29.63, -15.34, 4.00, 
77.00, 16.36, 81.94, -34.39, -4.28, 29.37, -15.36, 3.99, 
78.00, 16.34, 81.66, -33.97, -4.27, 29.10, -15.38, 3.99, 
79.00, 16.38, 81.57, -33.83, -4.26, 28.84, -15.40, 3.99, 
80.00, 16.42, 80.25, -34.72, -4.25, 28.57, -15.42, 3.99, 
81.00, 16.38, 81.09, -34.76, -4.24, 28.31, -15.44, 4.00, 
82.00, 15.90, 79.67, -34.56, -4.23, 28.05, -15.46, 3.99, 
83.00, 16.39, 81.27, -34.58, -4.22, 27.78, -15.48, 3.99, 
84.00, 16.21, 79.45, -34.29, -4.21, 27.52, -15.50, 4.00, 
85.00, 16.26, 79.89, -34.46, -4.21, 27.25, -15.52, 3.99, 
86.00, 16.22, 78.27, -34.55, -4.20, 26.99, -15.54, 3.99, 
87.00, 16.50, 78.19, -35.04, -4.19, 26.72, -15.56, 3.98, 
88.00, 16.19, 79.14, -34.77, -4.18, 26.46, -15.58, 3.98, 
89.00, 16.36, 77.68, -34.68, -4.17, 26.20, -15.60, 3.99, 
90.00, 16.29, 79.28, -34.36, -4.16, 25.93, -15.62, 3.98, 
91.00, 16.13, 77.14, -34.53, -4.15, 25.67, -15.64, 3.98, 
92.00, 16.27, 77.64, -34.63, -4.14, 25.40, -15.66, 3.99, 
93.00, 16.45, 76.77, -34.92, -4.14, 25.14, -15.68, 3.98, 
94.00, 16.32, 78.20, -34.55, -4.13, 24.88, -15.70, 3.98, 
95.00, 16.55, 77.49, -34.27, -4.12, 24.61, -15.72, 3.98, 
96.00, 16.21, 76.60, -34.28, -4.11, 24.35, -15.74, 3.98, 
97.00, 16.58, 76.23, -34.23, -4.10, 24.08, -15.76, 3.99, 
98.00, 16.54, 75.14, -35.02, -4.09, 23.82, -15.78, 3.98, 
99.00, 16.66, 76.87, -35.09, -4.08, 23.56, -15.80, 3.98, 
100.00, 16.70, 75.39, -34.67, -4.07, 23.29, -15.82, 3.97, 
101.00, 16.49, 76.83, -35.29, -4.07, 23.03, -15.84, 3.98, 
102.00, 16.35, 74.12, -35.23, -4.06, 22.77, -15.86, 3.99, 
103.00, 16.37, 75.88, -34.84, -4.05, 22.50, -15.88, 3.97, 
104.00, 16.48, 74.96, -34.55, -4.04, 22.24, -15.90, 3.98, 
105.00, 16.50, 75.21, -34.46, -4.03, 21.97, -15.92, 3.97, 
106.00, 16.50, 73.83, -34.83, -4.02, 21.71, -15.94, 3.98, 
107.00, 16.42, 73.19, -34.84, -4.01, 21.45, -15.96, 3.97, 
108.00, 16.54, 74.28, -34.82, -4.00, 21.18, -15.98, 3.98, 
109.00, 16.49, 73.31, -35.12, -4.00, 20.92, -16.00, 3.97, 
110.00, 16.56, 74.65, -34.67, -3.99, 20.66, -16.02, 3.98, 
111.00, 16.35, 71.90, -35.07, -3.98, 20.39, -16.04, 3.97, 
112.00, 16.85, 74.05, -34.35, -3.97, 20.13, -16.06, 3.98, 
113.00, 16.88, 72.85, -34.39, -3.96, 19.87, -16.08, 3.97, 
114.00, 16.93, 72.44, -34.38, -3.95, 19.60, -16.10, 3.98, 
115.00, 16.87, 71.98, -34.17, -3.94, 19.34, -16.13, 3.97, 
116.00, 16.60, 72.25, -34.93, -3.94, 19.08, -16.15, 3.98, 
117.00, 16.61, 72.01, -35.02, -3.93, 18.81, -16.17, 3.96, 
118.00, 16.68, 70.51, -34.60, -3.92, 18.55, -16.19, 3.98, 
119.00, 16.67, 71.26, -34.31, -3.91, 18.29, -16.21, 3.96, 
120.00, 16.76, 69.91, -34.65, -3.90, 18.03, -16.23, 3.97, 
121.00, 16.57, 71.56, -34.87, -3.89, 17.76, -16.25, 3.96, 
122.00, 16.50, 69.37, -34.44, -3.88, 17.50, -16.27, 3.97, 
123.00, 16.49, 71.25, -34.74, -3.87, 17.24, -16.29, 3.96, 
124.00, 16.46, 69.96, -34.76, -3.87, 16.97, -16.31, 3.97, 
125.00, 16.20, 69.99, -34.52, -3.86, 16.71, -16.33, 3.96, 
126.00, 16.47, 68.59, -34.59, -3.85, 16.45, -16.35, 3.97, 
127.00, 16.52, 69.12, -34.14, -3.84, 16.19, -16.37, 3.96, 
128.00, 16.44, 69.98, -34.22, -3.83, 15.92, -16.39, 3.97, 
129.00, 16.76, 67.31, -34.48, -3.82, 15.66, -16.41, 3.96, 
130.00, 16.72, 68.28, -34.56, -3.81, 15.40, -16.43, 3.95, 
131.00, 16.29, 67.48, -34.56, -3.81, 15.14, -16.45, 3.96, 
132.00, 16.56, 69.19, -34.54, -3.80, 14.87, -16.47, 3.95, 
133.00, 16.69, 66.86, -34.24, -3.79, 14.61, -16.49, 3.96, 
134.00, 16.24, 67.66, -33.82, -3.78, 14.35, -16.52, 3.95, 
135.00, 16.35, 67.15, -34.45, -3.77, 14.09, -16.54, 3.96, 
136.00, 16.45, 67.55, -34.51, -3.76, 13.83, -16.56, 3.95, 
137.00, 16.69, 66.41, -34.76, -3.75, 13.56, -16.58, 3.95, 
138.00, 16.85, 66.41, -35.00, -3.75, 13.30, -16.60, 3.96, 
139.00, 17.14, 67.27, -34.81, -3.74, 13.04, -16.62, 3.95, 
140.00, 16.97, 65.31, -34.31, -3.73, 12.78, -16.64, 3.96, 
141.00, 16.74, 66.72, -34.26, -3.72, 12.52, -16.66, 3.95, 
142.00, 16.71, 65.18, -34.55, -3.71, 12.25, -16.68, 3.96, 
143.00, 16.78, 65.95, -35.27, -3.70, 11.99, -16.70, 3.95, 
144.00, 17.02, 64.12, -34.25, -3.69, 11.73, -16.72, 3.95, 
145.00, 16.78, 65.50, -34.85, -3.69, 11.47, -16.74, 3.95, 
146.00, 16.41, 63.47, -34.56, -3.68, 11.21, -16.76, 3.95, 
147.00, 16.38, 63.88, -34.96, -3.67, 10.95, -16.78, 3.94, 
148.00, 16.50, 65.31, -35.23, -3.66, 10.68, -16.80, 3.95, 
149.00, 16.54, 63.24, -34.86, -3.65, 10.42, -16.83, 3.94, 
150.00, 16.53, 65.04, -35.20, -3.64, 10.16, -16.85, 3.95, 
151.00, 16.37, 63.12, -35.23, -3.63, 9.90, -16.87, 3.95, 
152.00, 16.42, 63.49, -35.45, -3.63, 9.64, -16.89, 3.94, 
153.00, 16.41, 63.55, -34.94, -3.62, 9.38, -16.91, 3.95, 
154.00, 16.66, 63.05, -35.05, -3.61, 9.12, -16.93, 3.95, 
155.00, 16.62, 62.68, -34.91, -3.60, 8.86, -16.95, 3.94, 
156.00, 16.79, 63.14, -35.24, -3.59, 8.59, -16.97, 3.95, 
157.00, 16.90, 62.94, -35.14, -3.58, 8.33, -16.99, 3.94, 
158.00, 16.75, 60.91, -34.93, -3.58, 8.07, -17.01, 3.93, 
159.00, 16.84, 62.92, -34.72, -3.57, 7.81, -17.03, 3.95, 
160.00, 16.67, 60.25, -34.93, -3.56, 7.55, -17.06, 3.94, 
161.00, 16.96, 61.36, -34.93, -3.55, 7.29, -17.08, 3.93, 
162.00, 17.22, 60.18, -35.22, -3.54, 7.03, -17.10, 3.95, 
163.00, 16.76, 60.70, -35.33, -3.53, 6.77, -17.12, 3.94, 
164.00, 16.78, 59.99, -35.13, -3.52, 6.51, -17.14, 3.93, 
165.00, 16.61, 60.43, -35.28, -3.52, 6.25, -17.16, 3.94, 
166.00, 16.97, 59.30, -35.05, -3.51, 5.99, -17.18, 3.94, 
167.00, 16.86, 60.29, -35.32, -3.50, 5.73, -17.20, 3.93, 
168.00, 17.04, 59.76, -35.04, -3.49, 5.47, -17.22, 3.94, 
169.00, 16.95, 58.92, -35.16, -3.48, 5.21, -17.24, 3.94, 
170.00, 16.90, 60.06, -35.47, -3.47, 4.95, -17.26, 3.93, 
171.00, 16.94, 57.56, -35.51, -3.47, 4.69, -17.29, 3.92, 
172.00, 16.64, 59.25, -35.15, -3.46, 4.43, -17.31, 3.94, 
173.00, 16.82, 57.38, -35.38, -3.45, 4.17, -17.33, 3.93, 
174.00, 17.21, 58.76, -35.51, -3.44, 3.91, -17.35, 3.92, 
175.00, 17.21, 57.66, -35.52, -3.43, 3.65, -17.37, 3.92, 
176.00, 17.04, 56.84, -35.55, -3.42, 3.39, -17.39, 3.93, 
177.00, 16.99, 58.36, -35.74, -3.42, 3.13, -17.41, 3.93, 
178.00, 17.04, 55.82, -35.54, -3.41, 2.87, -17.43, 3.92, 
179.00, 16.84, 57.38, -35.68, -3.40, 2.61, -17.45, 3.91, 
180.00, 16.81, 55.33, -35.86, -3.39, 2.35, -17.48, 3.93, 
181.00, 16.86, 57.04, -35.55, -3.38, 2.09, -17.50, 3.93, 
182.00, 16.53, 55.13, -35.76, -3.37, 1.83, -17.52, 3.92, 
183.00, 16.90, 55.78, -35.38, -3.37, 1.57, -17.54, 3.92, 
184.00, 17.02, 55.36, -35.76, -3.36, 1.32, -17.56, 3.91, 
185.00, 16.86, 55.92, -36.00, -3.35, 1.06, -17.58, 3.92, 
186.00, 16.84, 55.12, -36.19, -3.34, 0.80, -17.60, 3.92, 
187.00, 16.99, 54.10, -36.28, -3.33, 0.54, -17.62, 3.92, 
188.00, 16.97, 55.04, -36.44, -3.32, 0.28, -17.65, 3.92, 
189.00, 17.08, 53.48, -35.86, -3.32, 0.02, -17.67, 3.90, 
190.00, 17.04, 55.19, -36.55, -3.31, -0.24, -17.69, 3.92, 
191.00, 17.09, 53.11, -36.34, -3.30, -0.49, -17.71, 3.92, 
192.00, 16.99, 53.90, -35.96, -3.29, -0.75, -17.73, 3.91, 
193.00, 17.03, 53.37, -35.79, -3.28, -1.01, -17.75, 3.91, 
194.00, 16.95, 53.80, -35.86, -3.27, -1.27, -17.77, 3.90, 
195.00, 17.04, 53.24, -35.93, -3.27, -1.53, -17.79, 3.91, 
196.00, 17.08, 53.19, -35.60, -3.26, -1.78, -17.82, 3.91, 
197.00, 17.09, 53.66, -35.78, -3.25, -2.04, -17.84, 3.91, 
198.00, 16.75, 51.40, -35.65, -3.24, -2.30, -17.86, 3.91, 
199.00, 16.83, 53.18, -35.90, -3.23, -2.56, -17.88, 3.90, 
200.00, 16.90, 50.69, -35.81, -3.22, -2.82, -17.90, 3.89, 
201.00, 16.85, 52.09, -35.86, -3.22, -3.07, -17.92, 3.91, 
202.00, 16.93, 50.32, -35.78, -3.21, -3.33, -17.94, 3.90, 
203.00, 16.69, 51.20, -36.02, -3.20, -3.59, -17.96, 3.90, 
204.00, 16.65, 49.95, -35.80, -3.19, -3.84, -17.99, 3.90, 
205.00, 16.60, 51.01, -36.03, -3.18, -4.10, -18.01, 3.90, 
206.00, 16.85, 50.45, -35.65, -3.18, -4.36, -18.03, 3.90, 
207.00, 17.18, 50.53, -35.85, -3.17, -4.62, -18.05, 3.90, 
208.00, 17.12, 50.56, -35.96, -3.16, -4.87, -18.07, 3.90, 
209.00, 16.84, 50.17, -36.18, -3.15, -5.13, -18.09, 3.90, 
210.00, 16.96, 50.41, -36.24, -3.14, -5.39, -18.11, 3.89, 
211.00, 16.87, 49.27, -36.26, -3.14, -5.64, -18.14, 3.89, 
212.00, 16.90, 49.65, -35.62, -3.13, -5.90, -18.16, 3.89, 
213.00, 16.95, 48.48, -35.38, -3.12, -6.16, -18.18, 3.89, 
214.00, 16.88, 48.56, -35.47, -3.11, -6.41, -18.20, 3.89, 
215.00, 16.87, 48.08, -36.58, -3.10, -6.67, -18.22, 3.89, 
216.00, 16.67, 48.11, -36.28, -3.09, -6.92, -18.24, 3.87, 
217.00, 16.92, 48.02, -36.33, -3.09, -7.18, -18.27, 3.87, 
218.00, 17.24, 47.30, -36.09, -3.08, -7.44, -18.29, 3.88, 
219.00, 17.30, 47.77, -36.21, -3.07, -7.69, -18.31, 3.88, 
220.00, 17.26, 47.10, -35.88, -3.06, -7.95, -18.33, 3.88, 
221.00, 17.22, 47.29, -35.75, -3.05, -8.20, -18.35, 3.88, 
222.00, 16.71, 47.26, -35.87, -3.05, -8.46, -18.37, 3.88, 
223.00, 16.88, 46.16, -36.23, -3.04, -8.71, -18.39, 3.88, 
224.00, 17.13, 46.61, -36.32, -3.03, -8.97, -18.42, 3.87, 
225.00, 17.29, 45.82, -36.39, -3.02, -9.22, -18.44, 3.87, 
226.00, 17.53, 45.69, -36.54, -3.01, -9.48, -18.46, 3.87, 
227.00, 17.15, 45.76, -35.86, -3.01, -9.73, -18.48, 3.87, 
228.00, 17.08, 44.92, -35.83, -3.00, -9.99, -18.50, 3.87, 
229.00, 17.20, 45.05, -36.10, -2.99, -10.24, -18.52, 3.86, 
230.00, 16.92, 45.13, -36.06, -2.98, -10.50, -18.55, 3.86, 
231.00, 17.23, 44.50, -36.43, -2.97, -10.75, -18.57, 3.86, 
232.00, 17.55, 44.76, -36.47, -2.97, -11.01, -18.59, 3.86, 
233.00, 17.24, 43.88, -36.40, -2.96, -11.26, -18.61, 3.86, 
234.00, 17.09, 44.10, -36.41, -2.95, -11.52, -18.63, 3.86, 
235.00, 17.14, 43.90, -36.34, -2.94, -11.77, -18.66, 3.86, 
236.00, 17.42, 43.96, -36.16, -2.93, -12.02, -18.68, 3.86, 
237.00, 17.33, 43.55, -35.72, -2.93, -12.28, -18.70, 3.86, 
238.00, 17.31, 43.20, -36.02, -2.92, -12.53, -18.72, 3.86, 
239.00, 17.52, 43.22, -35.99, -2.91, -12.78, -18.74, 3.85, 
240.00, 17.42, 42.96, -36.38, -2.90, -13.04, -18.76, 3.85, 
241.00, 17.40, 42.65, -36.43, -2.90, -13.29, -18.79, 3.85, 
242.00, 17.63, 42.39, -36.29, -2.89, -13.54, -18.81, 3.85, 
243.00, 17.65, 42.17, -36.63, -2.88, -13.80, -18.83, 3.85, 
244.00, 17.78, 42.11, -36.58, -2.87, -14.05, -18.85, 3.85, 
245.00, 17.50, 41.55, -36.57, -2.86, -14.30, -18.87, 3.84, 
246.00, 17.36, 41.63, -36.39, -2.86, -14.56, -18.89, 3.84, 
247.00, 17.45, 41.13, -36.21, -2.85, -14.81, -18.92, 3.84, 
248.00, 17.60, 41.26, -36.47, -2.84, -15.06, -18.94, 3.84, 
249.00, 17.58, 40.81, -36.65, -2.83, -15.31, -18.96, 3.82, 
250.00, 17.50, 40.48, -36.70, -2.82, -15.57, -18.98, 3.83, 
251.00, 17.43, 40.37, -36.78, -2.82, -15.82, -19.00, 3.83, 
252.00, 17.63, 39.96, -36.20, -2.81, -16.07, -19.03, 3.83, 
253.00, 17.26, 39.63, -36.46, -2.80, -16.32, -19.05, 3.82, 
254.00, 17.21, 39.66, -36.77, -2.79, -16.58, -19.07, 3.82, 
255.00, 17.26, 39.55, -36.92, -2.79, -16.83, -19.09, 3.82, 
