---START---
-255.00, 29.36, 89.57, -55.99, -7.07, 115.05, -9.40, 3.94, 
-254.00, 23.88, 95.35, -45.90, -7.06, 114.81, -9.42, 3.91, 
-253.00, 23.85, 95.17, -46.22, -7.05, 114.57, -9.43, 3.95, 
-252.00, 23.41, 94.67, -46.21, -7.05, 114.33, -9.45, 3.94, 
-251.00, 23.29, 93.92, -46.22, -7.04, 114.08, -9.46, 3.92, 
-250.00, 23.18, 93.79, -45.37, -7.03, 113.84, -9.48, 3.95, 
-249.00, 22.98, 93.56, -45.97, -7.02, 113.60, -9.49, 3.95, 
-248.00, 22.81, 93.74, -46.17, -7.02, 113.36, -9.51, 3.97, 
-247.00, 22.86, 93.81, -45.75, -7.01, 113.11, -9.53, 3.99, 
-246.00, 22.58, 93.23, -45.45, -7.00, 112.87, -9.54, 4.00, 
-245.00, 22.59, 92.98, -45.53, -6.99, 112.63, -9.56, 4.00, 
-244.00, 22.56, 92.04, -45.52, -6.99, 112.38, -9.57, 3.99, 
-243.00, 22.57, 91.92, -45.87, -6.98, 112.14, -9.59, 3.97, 
-242.00, 22.93, 91.64, -45.45, -6.97, 111.90, -9.61, 3.99, 
-241.00, 22.62, 90.97, -45.46, -6.96, 111.65, -9.62, 3.98, 
-240.00, 22.42, 91.60, -45.67, -6.96, 111.41, -9.64, 3.98, 
-239.00, 22.18, 90.95, -45.56, -6.95, 111.17, -9.65, 3.97, 
-238.00, 22.61, 91.24, -45.83, -6.94, 110.92, -9.67, 3.98, 
-237.00, 22.45, 90.61, -46.34, -6.93, 110.68, -9.69, 3.98, 
-236.00, 22.47, 90.59, -46.39, -6.93, 110.43, -9.70, 3.99, 
-235.00, 22.59, 90.46, -46.38, -6.92, 110.19, -9.72, 3.98, 
-234.00, 22.74, 89.52, -46.19, -6.91, 109.94, -9.73, 3.99, 
-233.00, 22.96, 89.00, -45.71, -6.90, 109.70, -9.75, 4.00, 
-232.00, 23.28, 88.75, -45.05, -6.90, 109.45, -9.77, 4.01, 
-231.00, 23.85, 88.85, -45.05, -6.89, 109.21, -9.78, 4.01, 
-230.00, 23.96, 88.96, -45.50, -6.88, 108.96, -9.80, 4.01, 
-229.00, 23.92, 89.91, -46.06, -6.87, 108.72, -9.82, 4.01, 
-228.00, 23.83, 91.63, -46.59, -6.87, 108.47, -9.83, 4.01, 
-227.00, 23.74, 91.84, -46.39, -6.86, 108.22, -9.85, 4.01, 
-226.00, 24.12, 92.00, -46.60, -6.85, 107.98, -9.86, 4.00, 
-225.00, 24.02, 91.55, -46.38, -6.84, 107.73, -9.88, 4.01, 
-224.00, 24.78, 91.48, -46.43, -6.84, 107.49, -9.90, 4.01, 
-223.00, 25.02, 92.01, -46.45, -6.83, 107.24, -9.91, 4.01, 
-222.00, 25.51, 91.48, -46.75, -6.82, 106.99, -9.93, 4.01, 
-221.00, 25.76, 92.05, -46.68, -6.81, 106.75, -9.95, 4.01, 
-220.00, 26.80, 92.01, -46.14, -6.81, 106.50, -9.96, 4.01, 
-219.00, 27.36, 92.17, -45.82, -6.80, 106.25, -9.98, 4.00, 
-218.00, 27.68, 92.21, -45.40, -6.79, 106.00, -9.99, 3.99, 
-217.00, 28.34, 92.40, -45.22, -6.78, 105.76, -10.01, 4.02, 
-216.00, 28.32, 92.62, -45.24, -6.77, 105.51, -10.03, 4.03, 
-215.00, 28.18, 92.10, -44.75, -6.77, 105.26, -10.04, 3.99, 
-214.00, 27.82, 91.92, -44.79, -6.76, 105.01, -10.06, 3.99, 
-213.00, 27.01, 91.84, -46.09, -6.75, 104.77, -10.08, 3.99, 
-212.00, 26.60, 91.72, -46.25, -6.74, 104.52, -10.09, 4.01, 
-211.00, 26.35, 91.34, -46.24, -6.74, 104.27, -10.11, 4.01, 
-210.00, 25.50, 90.87, -46.83, -6.73, 104.02, -10.13, 4.01, 
-209.00, 24.92, 89.07, -46.79, -6.72, 103.77, -10.14, 4.02, 
-208.00, 23.87, 89.37, -47.76, -6.71, 103.53, -10.16, 4.02, 
-207.00, 22.19, 87.63, -48.62, -6.71, 103.28, -10.17, 4.02, 
-206.00, 19.65, 87.39, -50.25, -6.70, 103.03, -10.19, 4.02, 
-205.00, 17.54, 87.66, -52.17, -6.69, 102.78, -10.21, 4.02, 
-204.00, 15.52, 86.33, -52.77, -6.68, 102.53, -10.22, 4.02, 
-203.00, 13.27, 86.66, -53.79, -6.67, 102.28, -10.24, 4.01, 
-202.00, 11.17, 85.13, -54.79, -6.67, 102.03, -10.26, 4.01, 
-201.00, 9.66, 84.83, -55.12, -6.66, 101.78, -10.27, 4.02, 
-200.00, 9.33, 84.96, -55.38, -6.65, 101.53, -10.29, 4.02, 
-199.00, 9.17, 84.82, -55.20, -6.64, 101.28, -10.31, 4.03, 
-198.00, 8.87, 85.36, -55.66, -6.63, 101.03, -10.32, 4.03, 
-197.00, 8.79, 84.81, -55.63, -6.63, 100.78, -10.34, 4.03, 
-196.00, 9.05, 84.78, -55.38, -6.62, 100.53, -10.36, 4.03, 
-195.00, 9.16, 85.48, -55.59, -6.61, 100.28, -10.37, 4.01, 
-194.00, 9.24, 84.51, -55.30, -6.60, 100.03, -10.39, 4.00, 
-193.00, 9.61, 83.52, -55.06, -6.60, 99.78, -10.41, 4.01, 
-192.00, 10.34, 85.17, -54.32, -6.59, 99.53, -10.42, 4.02, 
-191.00, 10.77, 84.31, -54.94, -6.58, 99.28, -10.44, 4.02, 
-190.00, 10.70, 83.15, -54.83, -6.57, 99.03, -10.46, 4.00, 
-189.00, 11.08, 82.39, -54.70, -6.56, 98.78, -10.47, 4.00, 
-188.00, 12.48, 81.65, -54.25, -6.56, 98.53, -10.49, 4.00, 
-187.00, 15.81, 82.92, -53.06, -6.55, 98.28, -10.51, 4.01, 
-186.00, 21.73, 84.98, -49.70, -6.54, 98.02, -10.52, 4.01, 
-185.00, 27.33, 87.19, -46.43, -6.53, 97.77, -10.54, 4.01, 
-184.00, 30.96, 90.44, -44.25, -6.52, 97.52, -10.56, 4.00, 
-183.00, 33.10, 91.39, -42.48, -6.52, 97.27, -10.57, 4.01, 
-182.00, 34.09, 91.10, -41.59, -6.51, 97.02, -10.59, 4.01, 
-181.00, 34.54, 92.15, -41.53, -6.50, 96.77, -10.61, 4.02, 
-180.00, 32.00, 90.27, -44.74, -6.49, 96.51, -10.62, 4.02, 
-179.00, 22.90, 87.64, -52.30, -6.48, 96.26, -10.64, 4.02, 
-178.00, 7.79, 79.74, -58.19, -6.48, 96.01, -10.66, 4.01, 
-177.00, -6.38, 66.92, -57.64, -6.47, 95.76, -10.67, 4.01, 
-176.00, -13.70, 55.47, -50.27, -6.46, 95.50, -10.69, 4.02, 
-175.00, -16.94, 44.57, -40.85, -6.45, 95.25, -10.71, 4.02, 
-174.00, -17.51, 39.73, -32.41, -6.44, 95.00, -10.73, 4.03, 
-173.00, -17.84, 36.72, -25.43, -6.44, 94.75, -10.74, 4.02, 
-172.00, -18.24, 34.36, -20.34, -6.43, 94.49, -10.76, 4.02, 
-171.00, -18.12, 34.20, -16.38, -6.42, 94.24, -10.78, 4.02, 
-170.00, -18.17, 32.43, -13.28, -6.41, 93.99, -10.79, 4.02, 
-169.00, -19.11, 32.51, -12.48, -6.40, 93.73, -10.81, 4.03, 
-168.00, -18.98, 32.33, -10.88, -6.39, 93.48, -10.83, 4.02, 
-167.00, -21.34, 31.46, -9.79, -6.39, 93.23, -10.84, 4.02, 
-166.00, -21.19, 32.35, -7.85, -6.38, 92.97, -10.86, 4.03, 
-165.00, -21.98, 31.31, -5.84, -6.37, 92.72, -10.88, 4.03, 
-164.00, -22.36, 32.57, -4.36, -6.36, 92.47, -10.90, 4.03, 
-163.00, -22.37, 32.46, -0.72, -6.35, 92.21, -10.91, 4.02, 
-162.00, -21.41, 31.87, 2.50, -6.35, 91.96, -10.93, 4.02, 
-161.00, -20.92, 32.30, 2.59, -6.34, 91.70, -10.95, 4.03, 
-160.00, -21.34, 30.28, 1.08, -6.33, 91.45, -10.96, 4.02, 
-159.00, -22.48, 31.60, -0.04, -6.32, 91.19, -10.98, 4.02, 
-158.00, -24.69, 30.61, -2.27, -6.31, 90.94, -11.00, 4.03, 
-157.00, -25.68, 32.55, -4.88, -6.30, 90.69, -11.01, 4.02, 
-156.00, -27.90, 32.58, -8.29, -6.30, 90.43, -11.03, 4.02, 
-155.00, -31.56, 34.30, -16.44, -6.29, 90.18, -11.05, 4.03, 
-154.00, -34.70, 43.24, -32.62, -6.28, 89.92, -11.07, 4.03, 
-153.00, -30.51, 56.91, -51.30, -6.27, 89.67, -11.08, 4.02, 
-152.00, -15.77, 72.83, -61.16, -6.26, 89.41, -11.10, 4.02, 
-151.00, 6.50, 80.47, -60.21, -6.26, 89.16, -11.12, 4.03, 
-150.00, 21.37, 88.83, -54.70, -6.25, 88.90, -11.13, 4.03, 
-149.00, 32.08, 95.13, -45.45, -6.24, 88.64, -11.15, 4.02, 
-148.00, 35.87, 96.99, -41.86, -6.23, 88.39, -11.17, 4.03, 
-147.00, 38.52, 97.91, -38.30, -6.22, 88.13, -11.19, 4.03, 
-146.00, 41.40, 95.77, -33.52, -6.21, 87.88, -11.20, 4.02, 
-145.00, 41.61, 96.32, -32.67, -6.21, 87.62, -11.22, 4.02, 
-144.00, 39.95, 97.90, -33.82, -6.20, 87.37, -11.24, 4.03, 
-143.00, 37.80, 105.82, -32.08, -6.19, 87.11, -11.26, 4.03, 
-142.00, 34.51, 110.50, -31.96, -6.18, 86.85, -11.27, 4.02, 
-141.00, 25.89, 116.55, -36.43, -6.17, 86.60, -11.29, 4.03, 
-140.00, 12.69, 120.69, -43.56, -6.16, 86.34, -11.31, 4.03, 
-139.00, 6.10, 117.76, -47.55, -6.16, 86.08, -11.32, 4.02, 
-138.00, 5.65, 120.04, -45.99, -6.15, 85.83, -11.34, 4.02, 
-137.00, 5.62, 120.69, -43.71, -6.14, 85.57, -11.36, 4.03, 
-136.00, 5.93, 124.33, -42.33, -6.13, 85.31, -11.38, 4.02, 
-135.00, 5.16, 125.23, -41.20, -6.12, 85.06, -11.39, 4.03, 
-134.00, 5.64, 125.02, -40.89, -6.11, 84.80, -11.41, 4.03, 
-133.00, 7.64, 124.46, -41.54, -6.11, 84.54, -11.43, 4.03, 
-132.00, 8.61, 118.49, -45.12, -6.10, 84.29, -11.45, 4.03, 
-131.00, 9.70, 118.73, -45.66, -6.09, 84.03, -11.46, 4.03, 
-130.00, 8.18, 118.21, -45.26, -6.08, 83.77, -11.48, 4.03, 
-129.00, 8.82, 122.12, -42.72, -6.07, 83.51, -11.50, 4.03, 
-128.00, 9.06, 120.71, -42.12, -6.06, 83.26, -11.52, 4.03, 
-127.00, 9.30, 122.22, -41.07, -6.06, 83.00, -11.53, 4.03, 
-126.00, 9.58, 122.29, -40.19, -6.05, 82.74, -11.55, 4.03, 
-125.00, 10.53, 123.18, -37.63, -6.04, 82.48, -11.57, 4.03, 
-124.00, 10.31, 125.74, -37.51, -6.03, 82.23, -11.59, 4.03, 
-123.00, 7.73, 125.04, -38.07, -6.02, 81.97, -11.60, 4.04, 
-122.00, 7.24, 126.61, -37.85, -6.01, 81.71, -11.62, 4.04, 
-121.00, 6.93, 124.98, -38.34, -6.01, 81.45, -11.64, 4.04, 
-120.00, 9.11, 125.11, -36.59, -6.00, 81.19, -11.66, 4.03, 
-119.00, 15.28, 127.14, -31.61, -5.99, 80.94, -11.67, 4.03, 
-118.00, 18.69, 125.88, -26.65, -5.98, 80.68, -11.69, 4.03, 
-117.00, 19.13, 127.20, -26.10, -5.97, 80.42, -11.71, 4.03, 
-116.00, 20.42, 125.26, -27.15, -5.96, 80.16, -11.73, 4.03, 
-115.00, 20.93, 123.88, -27.93, -5.95, 79.90, -11.74, 4.03, 
-114.00, 20.53, 125.41, -26.72, -5.95, 79.64, -11.76, 4.03, 
-113.00, 20.24, 124.43, -26.22, -5.94, 79.38, -11.78, 4.03, 
-112.00, 20.34, 123.92, -26.58, -5.93, 79.13, -11.80, 4.04, 
-111.00, 20.40, 124.96, -26.57, -5.92, 78.87, -11.82, 4.04, 
-110.00, 20.34, 123.98, -26.68, -5.91, 78.61, -11.83, 4.04, 
-109.00, 20.35, 124.37, -26.65, -5.90, 78.35, -11.85, 4.04, 
-108.00, 20.53, 123.10, -26.31, -5.90, 78.09, -11.87, 4.03, 
-107.00, 20.49, 124.13, -26.61, -5.89, 77.83, -11.89, 4.03, 
-106.00, 20.34, 124.29, -26.62, -5.88, 77.57, -11.90, 4.03, 
-105.00, 20.34, 122.46, -26.81, -5.87, 77.31, -11.92, 4.03, 
-104.00, 20.35, 123.51, -26.91, -5.86, 77.05, -11.94, 4.03, 
-103.00, 20.36, 121.36, -26.71, -5.85, 76.79, -11.96, 4.03, 
-102.00, 20.39, 121.26, -27.21, -5.84, 76.53, -11.98, 4.04, 
-101.00, 20.58, 121.55, -27.12, -5.84, 76.27, -11.99, 4.04, 
-100.00, 20.34, 120.47, -26.25, -5.83, 76.01, -12.01, 4.04, 
-99.00, 20.32, 121.75, -26.51, -5.82, 75.75, -12.03, 4.03, 
-98.00, 20.33, 121.28, -26.61, -5.81, 75.49, -12.05, 4.04, 
-97.00, 20.56, 121.19, -26.81, -5.80, 75.23, -12.06, 4.03, 
-96.00, 20.87, 121.39, -26.50, -5.79, 74.97, -12.08, 4.03, 
-95.00, 20.79, 119.79, -27.04, -5.78, 74.71, -12.10, 4.04, 
-94.00, 20.68, 120.74, -26.88, -5.78, 74.45, -12.12, 4.04, 
-93.00, 20.97, 118.94, -26.43, -5.77, 74.19, -12.14, 4.04, 
-92.00, 21.01, 120.07, -26.93, -5.76, 73.93, -12.15, 4.04, 
-91.00, 20.57, 120.15, -26.64, -5.75, 73.67, -12.17, 4.04, 
-90.00, 20.47, 117.93, -26.92, -5.74, 73.41, -12.19, 4.04, 
-89.00, 20.25, 118.71, -27.31, -5.73, 73.15, -12.21, 4.04, 
-88.00, 20.18, 118.24, -27.21, -5.72, 72.89, -12.23, 4.04, 
-87.00, 20.22, 118.27, -27.46, -5.72, 72.63, -12.24, 4.04, 
-86.00, 20.82, 118.80, -27.68, -5.71, 72.37, -12.26, 4.04, 
-85.00, 20.34, 117.33, -27.23, -5.70, 72.11, -12.28, 4.04, 
-84.00, 20.55, 117.50, -27.08, -5.69, 71.85, -12.30, 4.04, 
-83.00, 20.50, 118.05, -27.43, -5.68, 71.59, -12.32, 4.04, 
-82.00, 20.50, 116.90, -27.74, -5.67, 71.33, -12.33, 4.04, 
-81.00, 20.56, 117.70, -27.21, -5.66, 71.06, -12.35, 4.04, 
-80.00, 20.39, 116.75, -27.28, -5.66, 70.80, -12.37, 4.04, 
-79.00, 20.27, 116.57, -27.26, -5.65, 70.54, -12.39, 4.04, 
-78.00, 20.47, 116.76, -27.30, -5.64, 70.28, -12.41, 4.04, 
-77.00, 20.30, 114.52, -27.12, -5.63, 70.02, -12.42, 4.04, 
-76.00, 20.29, 115.77, -27.43, -5.62, 69.76, -12.44, 4.04, 
-75.00, 20.63, 114.45, -27.49, -5.61, 69.50, -12.46, 4.04, 
-74.00, 20.38, 114.87, -27.86, -5.60, 69.23, -12.48, 4.04, 
-73.00, 20.54, 114.97, -27.79, -5.59, 68.97, -12.50, 4.04, 
-72.00, 20.56, 113.76, -27.87, -5.59, 68.71, -12.51, 4.04, 
-71.00, 20.63, 114.21, -27.74, -5.58, 68.45, -12.53, 4.04, 
-70.00, 20.65, 113.15, -27.74, -5.57, 68.19, -12.55, 4.04, 
-69.00, 20.39, 113.60, -27.77, -5.56, 67.93, -12.57, 4.04, 
-68.00, 20.38, 113.85, -27.47, -5.55, 67.66, -12.59, 4.04, 
-67.00, 20.47, 113.43, -27.55, -5.54, 67.40, -12.61, 4.04, 
-66.00, 20.62, 113.83, -27.57, -5.53, 67.14, -12.62, 4.04, 
-65.00, 20.54, 112.76, -28.02, -5.53, 66.88, -12.64, 4.04, 
-64.00, 20.73, 112.91, -28.57, -5.52, 66.62, -12.66, 4.04, 
-63.00, 20.80, 112.23, -28.32, -5.51, 66.35, -12.68, 4.04, 
-62.00, 20.77, 111.44, -28.18, -5.50, 66.09, -12.70, 4.04, 
-61.00, 20.18, 112.28, -27.68, -5.49, 65.83, -12.72, 4.04, 
-60.00, 20.57, 111.10, -27.54, -5.48, 65.57, -12.73, 4.04, 
-59.00, 20.64, 111.55, -27.75, -5.47, 65.30, -12.75, 4.04, 
-58.00, 20.83, 112.05, -27.75, -5.46, 65.04, -12.77, 4.04, 
-57.00, 20.34, 110.64, -27.78, -5.46, 64.78, -12.79, 4.04, 
-56.00, 20.30, 110.81, -27.24, -5.45, 64.52, -12.81, 4.04, 
-55.00, 20.79, 109.35, -27.41, -5.44, 64.25, -12.83, 4.04, 
-54.00, 20.97, 110.08, -27.62, -5.43, 63.99, -12.84, 4.04, 
-53.00, 20.79, 110.48, -27.77, -5.42, 63.73, -12.86, 4.04, 
-52.00, 20.79, 109.26, -27.78, -5.41, 63.47, -12.88, 4.04, 
-51.00, 20.91, 110.01, -27.22, -5.40, 63.20, -12.90, 4.04, 
-50.00, 20.91, 109.42, -27.70, -5.39, 62.94, -12.92, 4.04, 
-49.00, 20.73, 108.85, -27.82, -5.39, 62.68, -12.94, 4.04, 
-48.00, 20.93, 109.32, -28.49, -5.38, 62.42, -12.95, 4.04, 
-47.00, 20.83, 107.94, -28.16, -5.37, 62.15, -12.97, 4.04, 
-46.00, 21.18, 108.17, -28.36, -5.36, 61.89, -12.99, 4.04, 
-45.00, 21.23, 107.73, -28.27, -5.35, 61.63, -13.01, 4.04, 
-44.00, 20.92, 107.16, -27.82, -5.34, 61.36, -13.03, 4.04, 
-43.00, 21.45, 107.36, -28.14, -5.33, 61.10, -13.05, 4.04, 
-42.00, 21.20, 106.49, -27.92, -5.32, 60.84, -13.07, 4.04, 
-41.00, 20.97, 107.52, -27.47, -5.32, 60.57, -13.08, 4.04, 
-40.00, 20.90, 107.00, -27.89, -5.31, 60.31, -13.10, 4.04, 
-39.00, 20.79, 106.78, -28.32, -5.30, 60.05, -13.12, 4.04, 
-38.00, 20.99, 105.83, -28.28, -5.29, 59.78, -13.14, 4.04, 
-37.00, 20.96, 105.67, -28.34, -5.28, 59.52, -13.16, 4.04, 
-36.00, 20.89, 106.05, -28.42, -5.27, 59.26, -13.18, 4.04, 
-35.00, 20.77, 104.76, -28.00, -5.26, 58.99, -13.20, 4.04, 
-34.00, 20.96, 105.25, -28.15, -5.25, 58.73, -13.21, 4.04, 
-33.00, 20.89, 104.71, -27.41, -5.25, 58.47, -13.23, 4.04, 
-32.00, 21.22, 104.95, -27.76, -5.24, 58.20, -13.25, 4.04, 
-31.00, 21.21, 104.86, -27.69, -5.23, 57.94, -13.27, 4.04, 
-30.00, 20.83, 103.84, -27.80, -5.22, 57.68, -13.29, 4.04, 
-29.00, 20.87, 103.97, -27.97, -5.21, 57.41, -13.31, 4.04, 
-28.00, 20.80, 103.57, -27.96, -5.20, 57.15, -13.33, 4.04, 
-27.00, 21.06, 103.43, -27.58, -5.19, 56.88, -13.35, 4.04, 
-26.00, 21.19, 103.08, -27.51, -5.18, 56.62, -13.36, 4.04, 
-25.00, 21.01, 102.22, -27.82, -5.18, 56.36, -13.38, 4.04, 
-24.00, 20.99, 102.60, -28.03, -5.17, 56.09, -13.40, 4.04, 
-23.00, 21.14, 102.15, -27.83, -5.16, 55.83, -13.42, 4.04, 
-22.00, 20.91, 102.32, -27.56, -5.15, 55.57, -13.44, 4.04, 
-21.00, 20.82, 101.77, -27.97, -5.14, 55.30, -13.46, 4.04, 
-20.00, 20.95, 101.53, -28.12, -5.13, 55.04, -13.48, 4.04, 
-19.00, 20.81, 101.53, -28.24, -5.12, 54.77, -13.50, 4.04, 
-18.00, 20.82, 100.92, -28.38, -5.11, 54.51, -13.51, 4.04, 
-17.00, 20.93, 100.97, -28.51, -5.10, 54.25, -13.53, 4.04, 
-16.00, 20.96, 100.35, -28.35, -5.10, 53.98, -13.55, 4.04, 
-15.00, 20.99, 100.22, -28.19, -5.09, 53.72, -13.57, 4.04, 
-14.00, 21.24, 100.14, -28.57, -5.08, 53.45, -13.59, 4.04, 
-13.00, 21.24, 99.77, -28.44, -5.07, 53.19, -13.61, 4.04, 
-12.00, 21.25, 99.95, -28.16, -5.06, 52.92, -13.63, 4.04, 
-11.00, 20.94, 99.17, -28.26, -5.05, 52.66, -13.65, 4.04, 
-10.00, 20.81, 99.09, -28.22, -5.04, 52.40, -13.67, 4.04, 
-9.00, 20.71, 99.04, -27.92, -5.03, 52.13, -13.68, 4.04, 
-8.00, 20.98, 98.70, -28.31, -5.03, 51.87, -13.70, 4.04, 
-7.00, 20.96, 98.75, -28.55, -5.02, 51.60, -13.72, 4.04, 
-6.00, 20.97, 98.12, -28.35, -5.01, 51.34, -13.74, 4.04, 
-5.00, 21.03, 97.89, -28.23, -5.00, 51.07, -13.76, 4.04, 
-4.00, 20.99, 97.64, -28.81, -4.99, 50.81, -13.78, 4.04, 
-3.00, 21.17, 97.51, -28.55, -4.98, 50.55, -13.80, 4.04, 
-2.00, 21.18, 97.17, -28.70, -4.97, 50.28, -13.82, 4.04, 
-1.00, 21.11, 96.88, -28.79, -4.96, 50.02, -13.84, 4.04, 
0.00, 21.09, 96.58, -28.29, -4.95, 49.75, -13.86, 4.04, 
1.00, 20.73, 96.32, -27.77, -4.95, 49.49, -13.87, 4.04, 
2.00, 21.00, 95.97, -28.30, -4.94, 49.22, -13.89, 4.04, 
3.00, 21.11, 95.97, -28.08, -4.93, 48.96, -13.91, 4.04, 
4.00, 21.22, 95.79, -28.49, -4.92, 48.69, -13.93, 4.04, 
5.00, 21.07, 95.73, -29.04, -4.91, 48.43, -13.95, 4.04, 
6.00, 21.12, 95.39, -28.35, -4.90, 48.16, -13.97, 4.04, 
7.00, 21.16, 95.14, -28.49, -4.89, 47.90, -13.99, 4.04, 
8.00, 21.19, 95.06, -28.92, -4.88, 47.63, -14.01, 4.04, 
9.00, 21.39, 94.62, -28.40, -4.88, 47.37, -14.03, 4.04, 
10.00, 21.44, 94.36, -28.68, -4.87, 47.11, -14.05, 4.04, 
11.00, 21.12, 94.13, -28.37, -4.86, 46.84, -14.07, 4.04, 
12.00, 21.65, 93.67, -28.58, -4.85, 46.58, -14.09, 4.04, 
13.00, 21.19, 93.19, -28.59, -4.84, 46.31, -14.10, 4.04, 
14.00, 21.18, 93.05, -28.68, -4.83, 46.05, -14.12, 4.04, 
15.00, 21.37, 92.79, -29.11, -4.82, 45.78, -14.14, 4.04, 
16.00, 21.28, 92.99, -28.91, -4.81, 45.52, -14.16, 4.04, 
17.00, 21.46, 92.28, -29.10, -4.80, 45.25, -14.18, 4.04, 
18.00, 21.26, 92.10, -29.14, -4.80, 44.99, -14.20, 4.04, 
19.00, 21.53, 91.76, -29.00, -4.79, 44.72, -14.22, 4.04, 
20.00, 21.60, 91.08, -28.62, -4.78, 44.46, -14.24, 4.04, 
21.00, 21.60, 91.75, -28.84, -4.77, 44.19, -14.26, 4.04, 
22.00, 21.40, 91.00, -28.97, -4.76, 43.93, -14.28, 4.04, 
23.00, 21.58, 90.82, -29.35, -4.75, 43.66, -14.30, 4.04, 
24.00, 21.58, 90.31, -28.90, -4.74, 43.40, -14.32, 4.04, 
25.00, 21.42, 90.87, -29.16, -4.73, 43.13, -14.34, 4.04, 
26.00, 21.16, 89.88, -29.09, -4.72, 42.87, -14.36, 4.04, 
27.00, 21.38, 90.42, -29.00, -4.72, 42.60, -14.37, 4.04, 
28.00, 21.66, 89.44, -28.85, -4.71, 42.34, -14.39, 4.04, 
29.00, 21.72, 89.54, -28.88, -4.70, 42.07, -14.41, 4.04, 
30.00, 21.31, 89.20, -29.06, -4.69, 41.81, -14.43, 4.04, 
31.00, 21.60, 88.54, -29.35, -4.68, 41.54, -14.45, 4.04, 
32.00, 21.70, 88.06, -28.68, -4.67, 41.28, -14.47, 4.04, 
33.00, 21.72, 88.30, -28.71, -4.66, 41.02, -14.49, 4.04, 
34.00, 21.70, 88.33, -29.10, -4.65, 40.75, -14.51, 4.04, 
35.00, 21.51, 87.59, -29.60, -4.65, 40.49, -14.53, 4.04, 
36.00, 21.60, 88.20, -29.42, -4.64, 40.22, -14.55, 4.04, 
37.00, 21.80, 86.27, -29.55, -4.63, 39.96, -14.57, 4.04, 
38.00, 21.97, 87.56, -28.71, -4.62, 39.69, -14.59, 4.04, 
39.00, 21.84, 86.57, -29.24, -4.61, 39.43, -14.61, 4.04, 
40.00, 21.74, 86.88, -29.42, -4.60, 39.16, -14.63, 4.04, 
41.00, 21.64, 86.35, -29.31, -4.59, 38.90, -14.65, 4.04, 
42.00, 21.85, 86.11, -29.33, -4.58, 38.63, -14.67, 4.04, 
43.00, 21.95, 85.11, -28.92, -4.57, 38.37, -14.69, 4.04, 
44.00, 21.89, 86.00, -28.89, -4.57, 38.10, -14.71, 4.04, 
45.00, 21.94, 85.01, -29.50, -4.56, 37.84, -14.73, 4.04, 
46.00, 21.96, 84.96, -29.42, -4.55, 37.57, -14.74, 4.04, 
47.00, 21.84, 84.93, -29.40, -4.54, 37.31, -14.76, 4.04, 
48.00, 22.05, 83.84, -29.13, -4.53, 37.04, -14.78, 4.04, 
49.00, 22.03, 84.26, -29.11, -4.52, 36.78, -14.80, 4.04, 
50.00, 21.99, 83.39, -29.09, -4.51, 36.51, -14.82, 4.04, 
51.00, 22.06, 83.39, -29.16, -4.50, 36.25, -14.84, 4.04, 
52.00, 21.98, 83.15, -28.91, -4.50, 35.98, -14.86, 4.04, 
53.00, 21.84, 83.77, -29.29, -4.49, 35.72, -14.88, 4.04, 
54.00, 21.95, 82.53, -29.30, -4.48, 35.45, -14.90, 4.04, 
55.00, 22.06, 83.68, -29.16, -4.47, 35.19, -14.92, 4.04, 
56.00, 22.22, 82.04, -29.26, -4.46, 34.92, -14.94, 4.04, 
57.00, 22.08, 81.98, -29.54, -4.45, 34.66, -14.96, 4.04, 
58.00, 22.15, 82.11, -29.23, -4.44, 34.39, -14.98, 4.04, 
59.00, 22.25, 82.08, -29.26, -4.43, 34.13, -15.00, 4.04, 
60.00, 21.95, 81.48, -29.38, -4.42, 33.87, -15.02, 4.04, 
61.00, 21.90, 81.30, -29.48, -4.42, 33.60, -15.04, 4.04, 
62.00, 22.05, 80.62, -29.01, -4.41, 33.34, -15.06, 4.04, 
63.00, 21.88, 80.84, -29.18, -4.40, 33.07, -15.08, 4.04, 
64.00, 22.09, 81.07, -29.54, -4.39, 32.81, -15.10, 4.04, 
65.00, 22.20, 80.12, -29.18, -4.38, 32.54, -15.12, 4.04, 
66.00, 21.88, 80.70, -29.57, -4.37, 32.28, -15.14, 4.04, 
67.00, 21.89, 78.93, -29.61, -4.36, 32.01, -15.16, 4.04, 
68.00, 21.93, 80.47, -29.68, -4.35, 31.75, -15.18, 4.04, 
69.00, 21.64, 78.51, -29.32, -4.35, 31.48, -15.20, 4.04, 
70.00, 21.83, 78.96, -29.44, -4.34, 31.22, -15.22, 4.04, 
71.00, 21.76, 79.17, -29.41, -4.33, 30.95, -15.24, 4.04, 
72.00, 21.86, 77.92, -29.38, -4.32, 30.69, -15.26, 4.04, 
73.00, 21.96, 78.69, -29.41, -4.31, 30.43, -15.28, 4.04, 
74.00, 21.95, 78.08, -29.16, -4.30, 30.16, -15.30, 4.04, 
75.00, 22.13, 77.76, -28.96, -4.29, 29.90, -15.32, 4.04, 
76.00, 22.01, 77.62, -29.20, -4.28, 29.63, -15.34, 4.04, 
77.00, 22.07, 77.02, -29.05, -4.28, 29.37, -15.36, 4.04, 
78.00, 22.02, 76.85, -29.55, -4.27, 29.10, -15.38, 4.04, 
79.00, 22.49, 77.20, -29.58, -4.26, 28.84, -15.40, 4.04, 
80.00, 22.18, 76.08, -29.44, -4.25, 28.57, -15.42, 4.04, 
81.00, 22.04, 77.37, -29.61, -4.24, 28.31, -15.44, 4.04, 
82.00, 22.24, 75.53, -29.67, -4.23, 28.05, -15.46, 4.04, 
83.00, 22.21, 77.12, -29.66, -4.22, 27.78, -15.48, 4.04, 
84.00, 22.12, 74.38, -29.72, -4.21, 27.52, -15.50, 4.04, 
85.00, 22.03, 76.19, -29.56, -4.21, 27.25, -15.52, 4.04, 
86.00, 22.06, 74.56, -29.25, -4.20, 26.99, -15.54, 4.04, 
87.00, 21.37, 75.61, -29.80, -4.19, 26.72, -15.56, 4.04, 
88.00, 22.15, 74.20, -29.93, -4.18, 26.46, -15.58, 4.04, 
89.00, 22.03, 74.75, -29.86, -4.17, 26.20, -15.60, 4.04, 
90.00, 22.23, 74.88, -29.12, -4.16, 25.93, -15.62, 4.04, 
91.00, 22.09, 73.82, -29.60, -4.15, 25.67, -15.64, 4.04, 
92.00, 21.78, 73.75, -28.69, -4.14, 25.40, -15.66, 4.04, 
93.00, 22.43, 72.57, -29.63, -4.14, 25.14, -15.68, 4.04, 
94.00, 22.56, 73.16, -29.51, -4.13, 24.88, -15.70, 4.04, 
95.00, 22.17, 73.08, -29.78, -4.12, 24.61, -15.72, 4.04, 
96.00, 22.16, 72.73, -30.00, -4.11, 24.35, -15.74, 4.04, 
97.00, 22.38, 73.26, -30.19, -4.10, 24.08, -15.76, 4.04, 
98.00, 22.24, 71.16, -30.33, -4.09, 23.82, -15.78, 4.04, 
99.00, 22.03, 72.84, -29.96, -4.08, 23.56, -15.80, 4.04, 
100.00, 22.21, 70.91, -29.65, -4.07, 23.29, -15.82, 4.03, 
101.00, 22.61, 72.17, -29.59, -4.07, 23.03, -15.84, 4.04, 
102.00, 22.75, 71.06, -29.69, -4.06, 22.77, -15.86, 4.04, 
103.00, 22.72, 71.05, -30.13, -4.05, 22.50, -15.88, 4.04, 
104.00, 21.67, 71.18, -30.19, -4.04, 22.24, -15.90, 4.04, 
105.00, 22.12, 69.90, -30.03, -4.03, 21.97, -15.92, 4.03, 
106.00, 22.39, 71.01, -29.91, -4.02, 21.71, -15.94, 4.03, 
107.00, 22.17, 68.94, -30.01, -4.01, 21.45, -15.96, 4.03, 
108.00, 22.33, 70.63, -29.58, -4.00, 21.18, -15.98, 4.03, 
109.00, 22.36, 68.09, -30.47, -4.00, 20.92, -16.00, 4.03, 
110.00, 22.47, 70.29, -29.95, -3.99, 20.66, -16.02, 4.03, 
111.00, 22.36, 67.77, -29.83, -3.98, 20.39, -16.04, 4.03, 
112.00, 22.33, 68.65, -30.00, -3.97, 20.13, -16.06, 4.03, 
113.00, 22.30, 68.21, -30.35, -3.96, 19.87, -16.08, 4.03, 
114.00, 22.13, 67.57, -30.54, -3.95, 19.60, -16.10, 4.03, 
115.00, 22.39, 68.14, -30.38, -3.94, 19.34, -16.13, 4.03, 
116.00, 22.28, 66.66, -29.97, -3.94, 19.08, -16.15, 4.03, 
117.00, 22.36, 68.49, -30.28, -3.93, 18.81, -16.17, 4.03, 
118.00, 22.68, 66.26, -30.09, -3.92, 18.55, -16.19, 4.03, 
119.00, 22.51, 67.58, -30.04, -3.91, 18.29, -16.21, 4.03, 
120.00, 22.29, 66.40, -30.35, -3.90, 18.03, -16.23, 4.03, 
121.00, 22.47, 66.03, -30.30, -3.89, 17.76, -16.25, 4.03, 
122.00, 22.47, 65.90, -30.02, -3.88, 17.50, -16.27, 4.03, 
123.00, 22.32, 66.15, -30.47, -3.87, 17.24, -16.29, 4.04, 
124.00, 22.62, 67.08, -30.70, -3.87, 16.97, -16.31, 4.04, 
125.00, 22.62, 64.78, -30.93, -3.86, 16.71, -16.33, 4.04, 
126.00, 22.56, 65.90, -30.48, -3.85, 16.45, -16.35, 4.04, 
127.00, 22.51, 64.47, -30.66, -3.84, 16.19, -16.37, 4.04, 
128.00, 22.65, 65.43, -30.36, -3.83, 15.92, -16.39, 4.03, 
129.00, 22.62, 65.69, -29.95, -3.82, 15.66, -16.41, 4.03, 
130.00, 22.29, 63.99, -29.35, -3.81, 15.40, -16.43, 4.03, 
131.00, 22.42, 64.93, -30.25, -3.81, 15.14, -16.45, 4.03, 
132.00, 22.81, 62.67, -30.31, -3.80, 14.87, -16.47, 4.03, 
133.00, 22.53, 62.41, -30.50, -3.79, 14.61, -16.49, 4.03, 
134.00, 22.79, 62.83, -30.73, -3.78, 14.35, -16.52, 4.03, 
135.00, 22.83, 61.36, -30.12, -3.77, 14.09, -16.54, 4.03, 
136.00, 23.25, 62.09, -30.30, -3.76, 13.83, -16.56, 4.03, 
137.00, 22.86, 62.21, -29.96, -3.75, 13.56, -16.58, 4.03, 
138.00, 22.72, 60.53, -30.20, -3.75, 13.30, -16.60, 4.03, 
139.00, 23.04, 62.01, -30.35, -3.74, 13.04, -16.62, 4.03, 
140.00, 22.98, 60.53, -30.25, -3.73, 12.78, -16.64, 4.02, 
141.00, 22.68, 61.63, -30.56, -3.72, 12.52, -16.66, 4.03, 
142.00, 22.63, 62.04, -30.56, -3.71, 12.25, -16.68, 4.03, 
143.00, 22.41, 60.85, -30.71, -3.70, 11.99, -16.70, 4.03, 
144.00, 22.77, 62.07, -30.99, -3.69, 11.73, -16.72, 4.03, 
145.00, 22.95, 60.57, -31.40, -3.69, 11.47, -16.74, 4.03, 
146.00, 22.50, 60.35, -30.86, -3.68, 11.21, -16.76, 4.03, 
147.00, 22.79, 60.06, -30.82, -3.67, 10.95, -16.78, 4.03, 
148.00, 22.56, 58.36, -30.76, -3.66, 10.68, -16.80, 4.02, 
149.00, 22.51, 59.89, -30.83, -3.65, 10.42, -16.83, 4.02, 
150.00, 22.63, 58.19, -30.85, -3.64, 10.16, -16.85, 4.03, 
151.00, 22.78, 59.04, -30.82, -3.63, 9.90, -16.87, 4.03, 
152.00, 22.99, 59.79, -30.99, -3.63, 9.64, -16.89, 4.03, 
153.00, 22.87, 57.50, -30.94, -3.62, 9.38, -16.91, 4.03, 
154.00, 22.70, 59.62, -30.93, -3.61, 9.12, -16.93, 4.03, 
155.00, 23.01, 58.67, -30.61, -3.60, 8.86, -16.95, 4.02, 
156.00, 22.97, 58.71, -30.71, -3.59, 8.59, -16.97, 4.02, 
157.00, 22.86, 58.32, -30.92, -3.58, 8.33, -16.99, 4.02, 
158.00, 22.94, 56.43, -31.25, -3.58, 8.07, -17.01, 4.02, 
159.00, 22.70, 57.15, -31.27, -3.57, 7.81, -17.03, 4.03, 
160.00, 22.63, 55.77, -30.83, -3.56, 7.55, -17.06, 4.03, 
161.00, 22.15, 56.98, -31.03, -3.55, 7.29, -17.08, 4.03, 
162.00, 23.43, 56.77, -30.59, -3.54, 7.03, -17.10, 4.03, 
163.00, 22.58, 55.07, -30.94, -3.53, 6.77, -17.12, 4.03, 
164.00, 22.64, 56.05, -31.50, -3.52, 6.51, -17.14, 4.03, 
165.00, 22.84, 55.08, -30.58, -3.52, 6.25, -17.16, 4.03, 
166.00, 22.69, 54.90, -30.93, -3.51, 5.99, -17.18, 4.03, 
167.00, 22.67, 55.92, -31.03, -3.50, 5.73, -17.20, 4.03, 
168.00, 22.88, 54.08, -31.18, -3.49, 5.47, -17.22, 4.03, 
169.00, 22.74, 56.22, -31.08, -3.48, 5.21, -17.24, 4.03, 
170.00, 22.46, 54.09, -31.07, -3.47, 4.95, -17.26, 4.02, 
171.00, 21.74, 54.55, -31.73, -3.47, 4.69, -17.29, 4.02, 
172.00, 22.91, 54.67, -31.62, -3.46, 4.43, -17.31, 4.02, 
173.00, 22.78, 53.72, -31.65, -3.45, 4.17, -17.33, 4.02, 
174.00, 22.63, 54.17, -31.38, -3.44, 3.91, -17.35, 4.02, 
175.00, 22.84, 53.38, -31.40, -3.43, 3.65, -17.37, 4.02, 
176.00, 22.80, 53.22, -31.44, -3.42, 3.39, -17.39, 4.02, 
177.00, 22.87, 54.03, -31.35, -3.42, 3.13, -17.41, 4.02, 
178.00, 22.69, 51.93, -31.60, -3.41, 2.87, -17.43, 4.02, 
179.00, 22.73, 53.42, -31.79, -3.40, 2.61, -17.45, 4.02, 
180.00, 23.01, 51.26, -31.73, -3.39, 2.35, -17.48, 4.02, 
181.00, 23.03, 51.25, -31.45, -3.38, 2.09, -17.50, 4.01, 
182.00, 22.68, 51.71, -31.30, -3.37, 1.83, -17.52, 4.01, 
183.00, 22.63, 50.95, -31.70, -3.37, 1.57, -17.54, 4.02, 
184.00, 22.59, 51.32, -31.68, -3.36, 1.32, -17.56, 4.02, 
185.00, 22.99, 50.56, -31.41, -3.35, 1.06, -17.58, 4.02, 
186.00, 22.75, 51.09, -31.23, -3.34, 0.80, -17.60, 4.02, 
187.00, 22.98, 51.05, -31.10, -3.33, 0.54, -17.62, 4.01, 
188.00, 22.98, 50.04, -31.39, -3.32, 0.28, -17.65, 4.01, 
189.00, 22.81, 50.52, -31.63, -3.32, 0.02, -17.67, 4.01, 
190.00, 22.75, 49.15, -31.65, -3.31, -0.24, -17.69, 4.02, 
191.00, 22.80, 49.57, -31.64, -3.30, -0.49, -17.71, 4.02, 
192.00, 22.90, 48.91, -31.63, -3.29, -0.75, -17.73, 4.02, 
193.00, 22.71, 48.36, -31.66, -3.28, -1.01, -17.75, 4.02, 
194.00, 23.03, 48.93, -31.91, -3.27, -1.27, -17.77, 4.02, 
195.00, 23.00, 47.27, -32.24, -3.27, -1.53, -17.79, 4.01, 
196.00, 23.13, 48.30, -31.96, -3.26, -1.78, -17.82, 4.01, 
197.00, 23.33, 47.27, -31.89, -3.25, -2.04, -17.84, 4.02, 
198.00, 22.93, 47.73, -31.43, -3.24, -2.30, -17.86, 4.02, 
199.00, 22.90, 48.05, -31.00, -3.23, -2.56, -17.88, 4.02, 
200.00, 22.93, 47.05, -31.28, -3.22, -2.82, -17.90, 4.02, 
201.00, 22.69, 48.12, -31.38, -3.22, -3.07, -17.92, 4.02, 
202.00, 22.86, 47.00, -31.75, -3.21, -3.33, -17.94, 4.01, 
203.00, 22.98, 46.58, -31.69, -3.20, -3.59, -17.96, 4.01, 
204.00, 22.80, 47.00, -31.57, -3.19, -3.84, -17.99, 4.01, 
205.00, 22.64, 46.23, -31.46, -3.18, -4.10, -18.01, 4.02, 
206.00, 23.05, 45.63, -30.97, -3.18, -4.36, -18.03, 4.02, 
207.00, 23.15, 45.31, -31.57, -3.17, -4.62, -18.05, 4.02, 
208.00, 22.89, 46.17, -31.66, -3.16, -4.87, -18.07, 4.01, 
209.00, 22.86, 44.88, -31.39, -3.15, -5.13, -18.09, 4.01, 
210.00, 22.88, 45.11, -31.62, -3.14, -5.39, -18.11, 4.01, 
211.00, 23.18, 45.38, -31.48, -3.14, -5.64, -18.14, 4.01, 
212.00, 23.18, 44.46, -31.78, -3.13, -5.90, -18.16, 4.01, 
213.00, 22.89, 44.29, -31.80, -3.12, -6.16, -18.18, 4.00, 
214.00, 22.78, 43.99, -31.56, -3.11, -6.41, -18.20, 4.01, 
215.00, 22.82, 44.59, -31.58, -3.10, -6.67, -18.22, 4.01, 
216.00, 22.93, 43.13, -31.53, -3.09, -6.92, -18.24, 4.00, 
217.00, 22.70, 43.13, -31.52, -3.09, -7.18, -18.27, 4.01, 
218.00, 23.12, 42.88, -31.60, -3.08, -7.44, -18.29, 4.01, 
219.00, 22.82, 42.66, -32.03, -3.07, -7.69, -18.31, 4.01, 
220.00, 22.89, 43.01, -31.83, -3.06, -7.95, -18.33, 4.01, 
221.00, 23.10, 42.55, -32.07, -3.05, -8.20, -18.35, 4.01, 
222.00, 23.04, 42.58, -32.24, -3.05, -8.46, -18.37, 4.01, 
223.00, 23.00, 41.81, -31.98, -3.04, -8.71, -18.39, 4.01, 
224.00, 22.77, 41.92, -31.80, -3.03, -8.97, -18.42, 4.01, 
225.00, 22.88, 42.34, -31.84, -3.02, -9.22, -18.44, 4.01, 
226.00, 22.97, 41.11, -31.84, -3.01, -9.48, -18.46, 4.01, 
227.00, 22.69, 41.31, -31.78, -3.01, -9.73, -18.48, 4.00, 
228.00, 22.89, 40.78, -32.13, -3.00, -9.99, -18.50, 4.01, 
229.00, 23.22, 40.57, -32.08, -2.99, -10.24, -18.52, 4.01, 
230.00, 22.96, 40.86, -31.93, -2.98, -10.50, -18.55, 4.01, 
231.00, 23.11, 40.31, -32.19, -2.97, -10.75, -18.57, 4.01, 
232.00, 22.91, 40.09, -32.12, -2.97, -11.01, -18.59, 4.01, 
233.00, 22.98, 39.69, -32.57, -2.96, -11.26, -18.61, 4.01, 
234.00, 23.29, 39.15, -32.62, -2.95, -11.52, -18.63, 4.00, 
235.00, 23.22, 39.20, -32.33, -2.94, -11.77, -18.66, 4.01, 
236.00, 22.91, 38.77, -32.15, -2.93, -12.02, -18.68, 4.01, 
237.00, 22.84, 39.06, -32.71, -2.93, -12.28, -18.70, 4.00, 
238.00, 23.19, 38.09, -32.36, -2.92, -12.53, -18.72, 4.00, 
239.00, 22.87, 38.03, -32.40, -2.91, -12.78, -18.74, 4.00, 
240.00, 22.81, 38.26, -32.33, -2.90, -13.04, -18.76, 4.00, 
241.00, 22.01, 37.68, -32.46, -2.90, -13.29, -18.79, 4.00, 
242.00, 22.68, 37.37, -32.70, -2.89, -13.54, -18.81, 4.00, 
243.00, 23.07, 37.04, -32.40, -2.88, -13.80, -18.83, 4.00, 
244.00, 23.02, 37.16, -32.56, -2.87, -14.05, -18.85, 4.00, 
245.00, 23.12, 37.00, -32.63, -2.86, -14.30, -18.87, 4.00, 
246.00, 22.98, 36.77, -32.18, -2.86, -14.56, -18.89, 4.00, 
247.00, 23.10, 36.49, -32.33, -2.85, -14.81, -18.92, 4.00, 
248.00, 23.10, 36.17, -32.66, -2.84, -15.06, -18.94, 4.00, 
249.00, 23.08, 36.26, -32.62, -2.83, -15.31, -18.96, 4.00, 
250.00, 22.93, 35.62, -32.16, -2.82, -15.57, -18.98, 4.00, 
251.00, 23.08, 35.48, -32.03, -2.82, -15.82, -19.00, 4.00, 
252.00, 23.12, 35.29, -31.75, -2.81, -16.07, -19.03, 4.00, 
253.00, 23.12, 34.98, -31.77, -2.80, -16.32, -19.05, 4.00, 
254.00, 23.10, 34.81, -31.66, -2.79, -16.58, -19.07, 4.00, 
255.00, 22.82, 34.36, -31.86, -2.79, -16.83, -19.09, 4.00, 
