---START---
-255.00, 9.23, 174.84, -28.67, -7.07, 115.05, -9.40, 3.76, 
-254.00, 6.78, 165.29, -23.22, -7.06, 114.81, -9.42, 3.74, 
-253.00, 7.00, 164.11, -23.90, -7.05, 114.57, -9.43, 3.70, 
-252.00, 7.27, 164.21, -24.29, -7.05, 114.33, -9.45, 3.74, 
-251.00, 7.00, 163.36, -25.49, -7.04, 114.08, -9.46, 3.70, 
-250.00, 5.81, 164.04, -27.47, -7.03, 113.84, -9.48, 3.77, 
-249.00, 4.99, 163.27, -27.90, -7.02, 113.60, -9.49, 3.77, 
-248.00, 5.45, 163.32, -27.55, -7.02, 113.36, -9.51, 3.77, 
-247.00, 6.12, 162.32, -28.25, -7.01, 113.11, -9.53, 3.76, 
-246.00, 7.39, 161.25, -29.15, -7.00, 112.87, -9.54, 3.76, 
-245.00, 7.57, 160.87, -28.83, -6.99, 112.63, -9.56, 3.76, 
-244.00, 7.48, 161.34, -28.81, -6.99, 112.38, -9.57, 3.76, 
-243.00, 7.91, 161.16, -29.16, -6.98, 112.14, -9.59, 3.82, 
-242.00, 7.68, 161.17, -29.06, -6.97, 111.90, -9.61, 3.83, 
-241.00, 8.14, 160.00, -29.36, -6.96, 111.65, -9.62, 3.77, 
-240.00, 8.14, 159.83, -29.26, -6.96, 111.41, -9.64, 3.76, 
-239.00, 7.91, 160.29, -28.80, -6.95, 111.17, -9.65, 3.80, 
-238.00, 7.98, 159.72, -29.66, -6.94, 110.92, -9.67, 3.80, 
-237.00, 7.99, 160.01, -29.52, -6.93, 110.68, -9.69, 3.83, 
-236.00, 7.68, 159.51, -29.27, -6.93, 110.43, -9.70, 3.84, 
-235.00, 7.55, 159.60, -29.51, -6.92, 110.19, -9.72, 3.85, 
-234.00, 7.91, 157.74, -29.77, -6.91, 109.94, -9.73, 3.87, 
-233.00, 8.04, 156.76, -29.46, -6.90, 109.70, -9.75, 3.75, 
-232.00, 7.88, 158.20, -29.47, -6.90, 109.45, -9.77, 3.84, 
-231.00, 7.84, 157.43, -29.21, -6.89, 109.21, -9.78, 3.79, 
-230.00, 7.56, 156.36, -29.63, -6.88, 108.96, -9.80, 3.78, 
-229.00, 7.67, 156.88, -29.70, -6.87, 108.72, -9.82, 3.77, 
-228.00, 7.73, 157.79, -29.69, -6.87, 108.47, -9.83, 3.86, 
-227.00, 7.57, 157.47, -29.51, -6.86, 108.22, -9.85, 3.87, 
-226.00, 7.48, 157.00, -29.09, -6.85, 107.98, -9.86, 3.86, 
-225.00, 7.41, 157.21, -29.40, -6.84, 107.73, -9.88, 3.90, 
-224.00, 7.62, 157.73, -29.27, -6.84, 107.49, -9.90, 3.90, 
-223.00, 7.48, 156.51, -29.09, -6.83, 107.24, -9.91, 3.87, 
-222.00, 7.62, 156.22, -29.24, -6.82, 106.99, -9.93, 3.90, 
-221.00, 7.88, 156.58, -29.79, -6.81, 106.75, -9.95, 3.90, 
-220.00, 7.92, 155.99, -29.52, -6.81, 106.50, -9.96, 3.91, 
-219.00, 7.43, 156.57, -29.65, -6.80, 106.25, -9.98, 3.91, 
-218.00, 7.45, 155.59, -30.01, -6.79, 106.00, -9.99, 3.90, 
-217.00, 7.56, 155.91, -30.13, -6.78, 105.76, -10.01, 3.90, 
-216.00, 7.55, 155.44, -29.63, -6.77, 105.51, -10.03, 3.89, 
-215.00, 7.79, 154.90, -30.03, -6.77, 105.26, -10.04, 3.89, 
-214.00, 7.91, 155.38, -29.65, -6.76, 105.01, -10.06, 3.87, 
-213.00, 7.63, 155.12, -29.34, -6.75, 104.77, -10.08, 3.86, 
-212.00, 7.71, 154.50, -30.01, -6.74, 104.52, -10.09, 3.89, 
-211.00, 7.85, 154.50, -29.09, -6.74, 104.27, -10.11, 3.88, 
-210.00, 8.06, 153.70, -29.31, -6.73, 104.02, -10.13, 3.89, 
-209.00, 8.18, 154.33, -30.02, -6.72, 103.77, -10.14, 3.90, 
-208.00, 7.87, 153.31, -29.73, -6.71, 103.53, -10.16, 3.91, 
-207.00, 8.08, 153.48, -29.84, -6.71, 103.28, -10.17, 3.92, 
-206.00, 8.11, 153.23, -30.02, -6.70, 103.03, -10.19, 3.92, 
-205.00, 8.15, 152.43, -29.82, -6.69, 102.78, -10.21, 3.92, 
-204.00, 8.30, 152.68, -30.46, -6.68, 102.53, -10.22, 3.89, 
-203.00, 8.32, 151.51, -29.65, -6.67, 102.28, -10.24, 3.91, 
-202.00, 8.48, 152.02, -29.86, -6.67, 102.03, -10.26, 3.91, 
-201.00, 8.25, 151.68, -29.61, -6.66, 101.78, -10.27, 3.91, 
-200.00, 8.12, 150.44, -29.62, -6.65, 101.53, -10.29, 3.91, 
-199.00, 8.26, 151.04, -29.77, -6.64, 101.28, -10.31, 3.92, 
-198.00, 8.12, 150.14, -29.83, -6.63, 101.03, -10.32, 3.92, 
-197.00, 8.09, 150.96, -29.86, -6.63, 100.78, -10.34, 3.89, 
-196.00, 8.30, 149.69, -29.88, -6.62, 100.53, -10.36, 3.88, 
-195.00, 8.35, 150.81, -29.91, -6.61, 100.28, -10.37, 3.90, 
-194.00, 8.47, 150.37, -29.92, -6.60, 100.03, -10.39, 3.92, 
-193.00, 8.11, 149.86, -30.05, -6.60, 99.78, -10.41, 3.93, 
-192.00, 8.04, 151.23, -30.11, -6.59, 99.53, -10.42, 3.94, 
-191.00, 8.28, 149.91, -30.56, -6.58, 99.28, -10.44, 3.95, 
-190.00, 8.05, 150.33, -30.75, -6.57, 99.03, -10.46, 3.93, 
-189.00, 7.97, 149.21, -30.13, -6.56, 98.78, -10.47, 3.94, 
-188.00, 7.96, 149.09, -30.25, -6.56, 98.53, -10.49, 3.94, 
-187.00, 8.07, 149.00, -30.15, -6.55, 98.28, -10.51, 3.94, 
-186.00, 8.30, 147.88, -30.47, -6.54, 98.02, -10.52, 3.94, 
-185.00, 8.33, 148.08, -30.16, -6.53, 97.77, -10.54, 3.92, 
-184.00, 8.19, 146.92, -29.70, -6.52, 97.52, -10.56, 3.93, 
-183.00, 8.22, 148.19, -30.15, -6.52, 97.27, -10.57, 3.94, 
-182.00, 8.24, 147.37, -30.30, -6.51, 97.02, -10.59, 3.93, 
-181.00, 8.06, 148.31, -30.50, -6.50, 96.77, -10.61, 3.93, 
-180.00, 8.26, 146.74, -30.23, -6.49, 96.51, -10.62, 3.94, 
-179.00, 8.21, 147.26, -30.26, -6.48, 96.26, -10.64, 3.94, 
-178.00, 8.13, 146.84, -30.13, -6.48, 96.01, -10.66, 3.94, 
-177.00, 8.15, 146.01, -30.57, -6.47, 95.76, -10.67, 3.95, 
-176.00, 8.41, 147.00, -30.84, -6.46, 95.50, -10.69, 3.95, 
-175.00, 8.24, 145.25, -30.97, -6.45, 95.25, -10.71, 3.95, 
-174.00, 8.10, 146.83, -30.87, -6.44, 95.00, -10.73, 3.95, 
-173.00, 8.20, 144.95, -30.48, -6.44, 94.75, -10.74, 3.95, 
-172.00, 8.09, 145.57, -30.41, -6.43, 94.49, -10.76, 3.96, 
-171.00, 8.42, 145.15, -30.42, -6.42, 94.24, -10.78, 3.96, 
-170.00, 8.04, 144.26, -30.31, -6.41, 93.99, -10.79, 3.96, 
-169.00, 7.93, 145.49, -30.28, -6.40, 93.73, -10.81, 3.96, 
-168.00, 8.33, 143.95, -30.52, -6.39, 93.48, -10.83, 3.96, 
-167.00, 8.10, 144.74, -29.98, -6.39, 93.23, -10.84, 3.95, 
-166.00, 8.14, 143.85, -30.29, -6.38, 92.97, -10.86, 3.95, 
-165.00, 7.88, 143.40, -30.70, -6.37, 92.72, -10.88, 3.95, 
-164.00, 8.09, 143.10, -30.87, -6.36, 92.47, -10.90, 3.96, 
-163.00, 7.98, 142.38, -30.89, -6.35, 92.21, -10.91, 3.96, 
-162.00, 8.27, 143.29, -30.62, -6.35, 91.96, -10.93, 3.96, 
-161.00, 8.25, 141.34, -30.28, -6.34, 91.70, -10.95, 3.96, 
-160.00, 8.37, 143.03, -30.37, -6.33, 91.45, -10.96, 3.95, 
-159.00, 8.36, 140.96, -30.63, -6.32, 91.19, -10.98, 3.95, 
-158.00, 8.27, 141.18, -31.23, -6.31, 90.94, -11.00, 3.95, 
-157.00, 8.12, 141.56, -30.73, -6.30, 90.69, -11.01, 3.96, 
-156.00, 8.06, 140.82, -31.01, -6.30, 90.43, -11.03, 3.95, 
-155.00, 8.03, 141.43, -30.96, -6.29, 90.18, -11.05, 3.95, 
-154.00, 8.01, 139.58, -30.73, -6.28, 89.92, -11.07, 3.95, 
-153.00, 7.91, 140.96, -30.53, -6.27, 89.67, -11.08, 3.93, 
-152.00, 8.11, 140.14, -31.05, -6.26, 89.41, -11.10, 3.94, 
-151.00, 8.38, 140.02, -31.13, -6.26, 89.16, -11.12, 3.95, 
-150.00, 8.40, 140.06, -31.15, -6.25, 88.90, -11.13, 3.95, 
-149.00, 8.38, 138.65, -31.26, -6.24, 88.64, -11.15, 3.95, 
-148.00, 8.26, 140.15, -31.36, -6.23, 88.39, -11.17, 3.96, 
-147.00, 8.33, 138.08, -31.12, -6.22, 88.13, -11.19, 3.96, 
-146.00, 8.10, 139.89, -31.41, -6.21, 87.88, -11.20, 3.95, 
-145.00, 8.34, 138.13, -31.18, -6.21, 87.62, -11.22, 3.96, 
-144.00, 8.39, 137.03, -30.70, -6.20, 87.37, -11.24, 3.96, 
-143.00, 8.18, 138.36, -31.06, -6.19, 87.11, -11.26, 3.96, 
-142.00, 8.22, 137.40, -30.85, -6.18, 86.85, -11.27, 3.96, 
-141.00, 8.36, 138.44, -31.41, -6.17, 86.60, -11.29, 3.96, 
-140.00, 7.95, 137.05, -31.00, -6.16, 86.34, -11.31, 3.96, 
-139.00, 8.21, 137.63, -31.02, -6.16, 86.08, -11.32, 3.96, 
-138.00, 8.36, 137.14, -30.93, -6.15, 85.83, -11.34, 3.95, 
-137.00, 8.40, 136.40, -31.27, -6.14, 85.57, -11.36, 3.95, 
-136.00, 8.42, 137.10, -30.53, -6.13, 85.31, -11.38, 3.95, 
-135.00, 8.21, 135.04, -30.61, -6.12, 85.06, -11.39, 3.95, 
-134.00, 8.33, 136.80, -30.86, -6.11, 84.80, -11.41, 3.95, 
-133.00, 8.38, 135.15, -31.04, -6.11, 84.54, -11.43, 3.95, 
-132.00, 8.22, 135.63, -31.20, -6.10, 84.29, -11.45, 3.94, 
-131.00, 8.34, 135.28, -30.86, -6.09, 84.03, -11.46, 3.92, 
-130.00, 8.50, 133.80, -31.29, -6.08, 83.77, -11.48, 3.92, 
-129.00, 8.33, 135.19, -31.25, -6.07, 83.51, -11.50, 3.95, 
-128.00, 8.24, 133.74, -31.34, -6.06, 83.26, -11.52, 3.95, 
-127.00, 8.59, 134.12, -31.46, -6.06, 83.00, -11.53, 3.92, 
-126.00, 8.40, 132.95, -31.36, -6.05, 82.74, -11.55, 3.92, 
-125.00, 8.35, 132.86, -31.63, -6.04, 82.48, -11.57, 3.92, 
-124.00, 8.35, 133.64, -31.51, -6.03, 82.23, -11.59, 3.96, 
-123.00, 8.38, 132.11, -31.48, -6.02, 81.97, -11.60, 3.97, 
-122.00, 8.39, 134.07, -31.08, -6.01, 81.71, -11.62, 3.96, 
-121.00, 8.57, 131.63, -31.23, -6.01, 81.45, -11.64, 3.95, 
-120.00, 8.63, 132.61, -31.60, -6.00, 81.19, -11.66, 3.96, 
-119.00, 8.84, 131.71, -31.06, -5.99, 80.94, -11.67, 3.93, 
-118.00, 8.95, 131.07, -31.27, -5.98, 80.68, -11.69, 3.94, 
-117.00, 8.67, 132.23, -30.81, -5.97, 80.42, -11.71, 3.95, 
-116.00, 8.88, 131.42, -31.41, -5.96, 80.16, -11.73, 3.95, 
-115.00, 8.67, 131.54, -31.24, -5.95, 79.90, -11.74, 3.95, 
-114.00, 8.48, 130.08, -31.17, -5.95, 79.64, -11.76, 3.95, 
-113.00, 8.48, 131.22, -31.44, -5.94, 79.38, -11.78, 3.95, 
-112.00, 8.97, 131.18, -31.00, -5.93, 79.13, -11.80, 3.97, 
-111.00, 8.75, 130.46, -31.34, -5.92, 78.87, -11.82, 3.96, 
-110.00, 9.01, 130.87, -31.24, -5.91, 78.61, -11.83, 3.98, 
-109.00, 8.87, 129.73, -31.92, -5.90, 78.35, -11.85, 3.98, 
-108.00, 8.78, 130.58, -31.91, -5.90, 78.09, -11.87, 3.97, 
-107.00, 8.78, 128.31, -31.63, -5.89, 77.83, -11.89, 3.98, 
-106.00, 8.86, 129.18, -31.39, -5.88, 77.57, -11.90, 3.98, 
-105.00, 8.75, 128.44, -31.75, -5.87, 77.31, -11.92, 3.98, 
-104.00, 8.67, 127.74, -31.60, -5.86, 77.05, -11.94, 3.99, 
-103.00, 8.93, 129.02, -31.90, -5.85, 76.79, -11.96, 3.99, 
-102.00, 8.72, 127.56, -32.03, -5.84, 76.53, -11.98, 3.98, 
-101.00, 8.90, 128.64, -31.93, -5.84, 76.27, -11.99, 3.98, 
-100.00, 9.01, 127.27, -31.80, -5.83, 76.01, -12.01, 3.99, 
-99.00, 9.06, 128.59, -31.70, -5.82, 75.75, -12.03, 3.99, 
-98.00, 9.03, 128.09, -31.87, -5.81, 75.49, -12.05, 3.98, 
-97.00, 8.67, 126.69, -32.28, -5.80, 75.23, -12.06, 3.97, 
-96.00, 8.72, 127.59, -32.08, -5.79, 74.97, -12.08, 3.97, 
-95.00, 8.62, 125.60, -32.01, -5.78, 74.71, -12.10, 3.98, 
-94.00, 8.71, 126.45, -32.12, -5.78, 74.45, -12.12, 3.99, 
-93.00, 8.75, 125.63, -31.67, -5.77, 74.19, -12.14, 3.98, 
-92.00, 8.69, 126.25, -32.20, -5.76, 73.93, -12.15, 3.98, 
-91.00, 9.29, 125.70, -31.97, -5.75, 73.67, -12.17, 3.99, 
-90.00, 8.77, 125.02, -32.07, -5.74, 73.41, -12.19, 3.98, 
-89.00, 9.07, 124.70, -32.14, -5.73, 73.15, -12.21, 3.98, 
-88.00, 8.86, 123.54, -31.76, -5.72, 72.89, -12.23, 3.99, 
-87.00, 8.89, 124.54, -31.51, -5.72, 72.63, -12.24, 3.98, 
-86.00, 8.82, 123.09, -31.41, -5.71, 72.37, -12.26, 3.98, 
-85.00, 8.80, 124.88, -31.32, -5.70, 72.11, -12.28, 3.99, 
-84.00, 8.74, 123.69, -31.38, -5.69, 71.85, -12.30, 3.99, 
-83.00, 8.93, 123.79, -32.28, -5.68, 71.59, -12.32, 3.99, 
-82.00, 8.72, 122.89, -32.25, -5.67, 71.33, -12.33, 3.99, 
-81.00, 8.84, 122.09, -31.85, -5.66, 71.06, -12.35, 3.99, 
-80.00, 8.99, 122.92, -31.65, -5.66, 70.80, -12.37, 3.99, 
-79.00, 9.04, 121.56, -31.99, -5.65, 70.54, -12.39, 3.99, 
-78.00, 8.89, 123.17, -31.86, -5.64, 70.28, -12.41, 3.99, 
-77.00, 9.06, 121.86, -32.17, -5.63, 70.02, -12.42, 3.99, 
-76.00, 9.18, 121.67, -32.56, -5.62, 69.76, -12.44, 3.99, 
-75.00, 9.16, 120.95, -32.09, -5.61, 69.50, -12.46, 3.99, 
-74.00, 9.18, 121.08, -31.83, -5.60, 69.23, -12.48, 3.99, 
-73.00, 9.12, 121.96, -31.70, -5.59, 68.97, -12.50, 4.00, 
-72.00, 8.88, 120.77, -31.91, -5.59, 68.71, -12.51, 3.99, 
-71.00, 8.92, 121.47, -32.40, -5.58, 68.45, -12.53, 4.00, 
-70.00, 8.72, 119.45, -32.26, -5.57, 68.19, -12.55, 4.00, 
-69.00, 8.97, 120.34, -31.93, -5.56, 67.93, -12.57, 4.00, 
-68.00, 9.06, 119.44, -31.91, -5.55, 67.66, -12.59, 4.00, 
-67.00, 9.10, 120.10, -32.23, -5.54, 67.40, -12.61, 4.00, 
-66.00, 9.12, 120.64, -32.24, -5.53, 67.14, -12.62, 4.00, 
-65.00, 9.18, 119.53, -32.29, -5.53, 66.88, -12.64, 4.00, 
-64.00, 9.10, 119.73, -32.27, -5.52, 66.62, -12.66, 3.99, 
-63.00, 9.27, 118.20, -32.06, -5.51, 66.35, -12.68, 3.99, 
-62.00, 9.16, 119.47, -32.04, -5.50, 66.09, -12.70, 3.99, 
-61.00, 9.11, 118.10, -32.54, -5.49, 65.83, -12.72, 3.98, 
-60.00, 9.07, 118.85, -32.10, -5.48, 65.57, -12.73, 3.99, 
-59.00, 9.50, 117.32, -32.38, -5.47, 65.30, -12.75, 3.99, 
-58.00, 9.47, 117.49, -32.46, -5.46, 65.04, -12.77, 3.99, 
-57.00, 9.63, 117.97, -32.07, -5.46, 64.78, -12.79, 3.99, 
-56.00, 9.49, 117.19, -32.38, -5.45, 64.52, -12.81, 4.00, 
-55.00, 9.58, 117.27, -31.78, -5.44, 64.25, -12.83, 4.00, 
-54.00, 9.31, 116.08, -31.72, -5.43, 63.99, -12.84, 4.00, 
-53.00, 9.13, 117.23, -32.42, -5.42, 63.73, -12.86, 4.00, 
-52.00, 9.40, 115.67, -32.20, -5.41, 63.47, -12.88, 4.00, 
-51.00, 9.28, 115.98, -32.05, -5.40, 63.20, -12.90, 4.00, 
-50.00, 9.30, 115.34, -31.97, -5.39, 62.94, -12.92, 4.00, 
-49.00, 9.16, 116.21, -32.60, -5.39, 62.68, -12.94, 4.00, 
-48.00, 9.12, 115.24, -32.31, -5.38, 62.42, -12.95, 4.00, 
-47.00, 9.14, 114.67, -32.26, -5.37, 62.15, -12.97, 4.00, 
-46.00, 9.23, 115.39, -32.18, -5.36, 61.89, -12.99, 4.00, 
-45.00, 9.40, 114.00, -32.29, -5.35, 61.63, -13.01, 4.00, 
-44.00, 9.32, 114.27, -32.35, -5.34, 61.36, -13.03, 4.00, 
-43.00, 9.36, 113.21, -32.57, -5.33, 61.10, -13.05, 4.00, 
-42.00, 9.11, 114.11, -32.30, -5.32, 60.84, -13.07, 4.01, 
-41.00, 9.31, 112.56, -32.69, -5.32, 60.57, -13.08, 4.00, 
-40.00, 9.00, 112.91, -32.91, -5.31, 60.31, -13.10, 4.00, 
-39.00, 9.30, 113.12, -32.43, -5.30, 60.05, -13.12, 4.00, 
-38.00, 9.30, 112.96, -32.17, -5.29, 59.78, -13.14, 4.00, 
-37.00, 9.07, 112.54, -32.31, -5.28, 59.52, -13.16, 4.00, 
-36.00, 8.93, 112.00, -32.45, -5.27, 59.26, -13.18, 4.00, 
-35.00, 8.90, 112.65, -31.77, -5.26, 58.99, -13.20, 4.00, 
-34.00, 8.98, 111.35, -32.21, -5.25, 58.73, -13.21, 4.00, 
-33.00, 8.91, 112.12, -32.18, -5.25, 58.47, -13.23, 4.01, 
-32.00, 9.01, 111.05, -32.09, -5.24, 58.20, -13.25, 4.01, 
-31.00, 8.99, 111.67, -32.22, -5.23, 57.94, -13.27, 4.01, 
-30.00, 9.42, 110.78, -32.74, -5.22, 57.68, -13.29, 4.01, 
-29.00, 9.11, 110.98, -32.82, -5.21, 57.41, -13.31, 4.01, 
-28.00, 9.04, 110.37, -32.57, -5.20, 57.15, -13.33, 4.01, 
-27.00, 9.35, 110.41, -32.79, -5.19, 56.88, -13.35, 4.01, 
-26.00, 9.32, 109.95, -32.86, -5.18, 56.62, -13.36, 4.01, 
-25.00, 9.46, 109.86, -32.73, -5.18, 56.36, -13.38, 4.01, 
-24.00, 9.35, 109.26, -33.03, -5.17, 56.09, -13.40, 4.01, 
-23.00, 9.33, 109.03, -32.56, -5.16, 55.83, -13.42, 4.01, 
-22.00, 9.32, 109.49, -32.84, -5.15, 55.57, -13.44, 4.01, 
-21.00, 8.99, 108.56, -33.02, -5.14, 55.30, -13.46, 4.01, 
-20.00, 9.16, 108.47, -33.21, -5.13, 55.04, -13.48, 4.01, 
-19.00, 9.30, 108.32, -32.95, -5.12, 54.77, -13.50, 4.01, 
-18.00, 9.18, 107.82, -32.93, -5.11, 54.51, -13.51, 4.01, 
-17.00, 9.43, 107.42, -32.93, -5.10, 54.25, -13.53, 4.01, 
-16.00, 9.28, 107.69, -32.77, -5.10, 53.98, -13.55, 4.01, 
-15.00, 9.18, 107.01, -32.64, -5.09, 53.72, -13.57, 4.01, 
-14.00, 9.16, 106.91, -32.66, -5.08, 53.45, -13.59, 4.01, 
-13.00, 9.25, 106.73, -32.90, -5.07, 53.19, -13.61, 4.01, 
-12.00, 9.15, 106.12, -33.09, -5.06, 52.92, -13.63, 4.01, 
-11.00, 9.44, 105.87, -32.64, -5.05, 52.66, -13.65, 4.01, 
-10.00, 9.23, 105.64, -32.38, -5.04, 52.40, -13.67, 4.01, 
-9.00, 9.27, 105.44, -32.32, -5.03, 52.13, -13.68, 4.01, 
-8.00, 9.13, 105.07, -32.20, -5.03, 51.87, -13.70, 4.01, 
-7.00, 9.27, 105.23, -32.84, -5.02, 51.60, -13.72, 4.01, 
-6.00, 9.29, 104.81, -33.19, -5.01, 51.34, -13.74, 4.01, 
-5.00, 9.29, 104.54, -32.62, -5.00, 51.07, -13.76, 4.01, 
-4.00, 9.30, 104.07, -32.63, -4.99, 50.81, -13.78, 4.01, 
-3.00, 9.57, 103.88, -32.66, -4.98, 50.55, -13.80, 4.01, 
-2.00, 9.28, 103.84, -32.95, -4.97, 50.28, -13.82, 4.01, 
-1.00, 9.13, 103.46, -32.87, -4.96, 50.02, -13.84, 4.01, 
0.00, 9.44, 103.10, -33.00, -4.95, 49.75, -13.86, 4.01, 
1.00, 9.23, 102.74, -32.65, -4.95, 49.49, -13.87, 4.01, 
2.00, 9.29, 102.67, -32.91, -4.94, 49.22, -13.89, 4.01, 
3.00, 9.17, 102.56, -33.26, -4.93, 48.96, -13.91, 4.01, 
4.00, 9.23, 102.44, -33.69, -4.92, 48.69, -13.93, 4.01, 
5.00, 9.60, 102.16, -33.59, -4.91, 48.43, -13.95, 4.01, 
6.00, 9.28, 101.37, -34.16, -4.90, 48.16, -13.97, 4.01, 
7.00, 9.05, 101.36, -33.63, -4.89, 47.90, -13.99, 4.01, 
8.00, 9.44, 101.03, -33.78, -4.88, 47.63, -14.01, 4.01, 
9.00, 9.43, 100.82, -33.69, -4.88, 47.37, -14.03, 4.01, 
10.00, 9.35, 100.70, -33.92, -4.87, 47.11, -14.05, 4.01, 
11.00, 9.59, 100.76, -33.57, -4.86, 46.84, -14.07, 4.01, 
12.00, 9.55, 100.34, -33.62, -4.85, 46.58, -14.09, 4.01, 
13.00, 9.50, 100.44, -33.98, -4.84, 46.31, -14.10, 4.01, 
14.00, 9.33, 99.61, -33.79, -4.83, 46.05, -14.12, 4.01, 
15.00, 9.38, 99.26, -33.96, -4.82, 45.78, -14.14, 4.01, 
16.00, 9.44, 99.33, -34.03, -4.81, 45.52, -14.16, 4.01, 
17.00, 9.70, 98.94, -33.72, -4.80, 45.25, -14.18, 4.01, 
18.00, 9.59, 99.19, -34.40, -4.80, 44.99, -14.20, 4.01, 
19.00, 9.77, 98.06, -34.40, -4.79, 44.72, -14.22, 4.01, 
20.00, 9.73, 97.90, -33.76, -4.78, 44.46, -14.24, 4.01, 
21.00, 9.95, 97.56, -33.52, -4.77, 44.19, -14.26, 4.01, 
22.00, 9.94, 97.97, -34.03, -4.76, 43.93, -14.28, 4.01, 
23.00, 9.87, 97.12, -33.70, -4.75, 43.66, -14.30, 4.01, 
24.00, 9.75, 97.73, -34.44, -4.74, 43.40, -14.32, 4.01, 
25.00, 9.77, 96.93, -33.84, -4.73, 43.13, -14.34, 4.01, 
26.00, 9.93, 97.15, -33.59, -4.72, 42.87, -14.36, 4.01, 
27.00, 9.91, 96.34, -33.85, -4.72, 42.60, -14.37, 4.01, 
28.00, 9.98, 96.69, -33.88, -4.71, 42.34, -14.39, 4.01, 
29.00, 9.74, 95.62, -33.81, -4.70, 42.07, -14.41, 4.01, 
30.00, 9.87, 96.05, -33.78, -4.69, 41.81, -14.43, 4.01, 
31.00, 9.44, 95.47, -33.46, -4.68, 41.54, -14.45, 4.01, 
32.00, 9.32, 95.90, -33.97, -4.67, 41.28, -14.47, 4.01, 
33.00, 9.45, 95.48, -34.18, -4.66, 41.02, -14.49, 4.01, 
34.00, 9.56, 95.18, -34.65, -4.65, 40.75, -14.51, 4.01, 
35.00, 9.38, 95.31, -33.83, -4.65, 40.49, -14.53, 4.01, 
36.00, 9.37, 94.34, -34.20, -4.64, 40.22, -14.55, 4.00, 
37.00, 9.40, 94.47, -34.22, -4.63, 39.96, -14.57, 4.00, 
38.00, 9.60, 93.61, -34.51, -4.62, 39.69, -14.59, 4.00, 
39.00, 9.57, 94.03, -34.18, -4.61, 39.43, -14.61, 4.00, 
40.00, 9.41, 92.49, -34.65, -4.60, 39.16, -14.63, 4.00, 
41.00, 9.60, 93.38, -34.27, -4.59, 38.90, -14.65, 4.00, 
42.00, 9.57, 93.13, -34.04, -4.58, 38.63, -14.67, 4.01, 
43.00, 9.58, 92.48, -34.68, -4.57, 38.37, -14.69, 4.01, 
44.00, 9.47, 92.27, -34.99, -4.57, 38.10, -14.71, 4.01, 
45.00, 9.81, 92.03, -34.55, -4.56, 37.84, -14.73, 4.00, 
46.00, 9.80, 91.25, -34.73, -4.55, 37.57, -14.74, 4.00, 
47.00, 9.64, 92.69, -34.72, -4.54, 37.31, -14.76, 4.00, 
48.00, 9.41, 91.44, -34.92, -4.53, 37.04, -14.78, 4.00, 
49.00, 9.80, 92.33, -34.60, -4.52, 36.78, -14.80, 4.00, 
50.00, 9.68, 90.42, -34.87, -4.51, 36.51, -14.82, 4.00, 
51.00, 9.91, 91.32, -34.46, -4.50, 36.25, -14.84, 4.00, 
52.00, 9.72, 89.64, -34.39, -4.50, 35.98, -14.86, 4.00, 
53.00, 9.97, 91.05, -34.49, -4.49, 35.72, -14.88, 4.00, 
54.00, 9.75, 89.25, -33.98, -4.48, 35.45, -14.90, 4.00, 
55.00, 10.04, 90.53, -34.28, -4.47, 35.19, -14.92, 4.00, 
56.00, 9.77, 89.04, -34.54, -4.46, 34.92, -14.94, 4.00, 
57.00, 9.84, 89.84, -34.60, -4.45, 34.66, -14.96, 3.99, 
58.00, 9.97, 88.94, -34.44, -4.44, 34.39, -14.98, 4.00, 
59.00, 9.86, 89.10, -34.35, -4.43, 34.13, -15.00, 3.99, 
60.00, 10.18, 88.79, -34.42, -4.42, 33.87, -15.02, 3.99, 
61.00, 9.85, 88.42, -34.87, -4.42, 33.60, -15.04, 3.99, 
62.00, 9.68, 88.04, -34.46, -4.41, 33.34, -15.06, 3.99, 
63.00, 9.68, 87.84, -34.76, -4.40, 33.07, -15.08, 3.99, 
64.00, 9.88, 87.47, -34.77, -4.39, 32.81, -15.10, 3.99, 
65.00, 9.92, 87.50, -35.24, -4.38, 32.54, -15.12, 3.99, 
66.00, 9.98, 86.18, -34.55, -4.37, 32.28, -15.14, 3.99, 
67.00, 9.86, 86.76, -35.10, -4.36, 32.01, -15.16, 3.99, 
68.00, 10.23, 86.13, -35.50, -4.35, 31.75, -15.18, 3.99, 
69.00, 9.82, 85.34, -35.30, -4.35, 31.48, -15.20, 3.99, 
70.00, 9.86, 85.96, -35.22, -4.34, 31.22, -15.22, 3.99, 
71.00, 10.19, 84.76, -35.54, -4.33, 30.95, -15.24, 4.00, 
72.00, 10.23, 86.32, -35.31, -4.32, 30.69, -15.26, 3.99, 
73.00, 9.99, 85.17, -34.78, -4.31, 30.43, -15.28, 3.99, 
74.00, 9.58, 84.31, -35.19, -4.30, 30.16, -15.30, 3.99, 
75.00, 9.66, 85.29, -34.99, -4.29, 29.90, -15.32, 3.99, 
76.00, 9.97, 83.35, -35.52, -4.28, 29.63, -15.34, 3.99, 
77.00, 9.94, 84.47, -35.60, -4.28, 29.37, -15.36, 3.99, 
78.00, 10.27, 83.66, -35.49, -4.27, 29.10, -15.38, 3.99, 
79.00, 10.27, 82.38, -35.46, -4.26, 28.84, -15.40, 3.99, 
80.00, 10.28, 83.36, -35.63, -4.25, 28.57, -15.42, 3.98, 
81.00, 10.18, 82.72, -35.15, -4.24, 28.31, -15.44, 3.99, 
82.00, 10.30, 83.41, -35.73, -4.23, 28.05, -15.46, 3.99, 
83.00, 10.26, 83.48, -35.52, -4.22, 27.78, -15.48, 3.98, 
84.00, 9.78, 82.63, -35.72, -4.21, 27.52, -15.50, 3.99, 
85.00, 10.09, 83.27, -35.77, -4.21, 27.25, -15.52, 3.99, 
86.00, 10.14, 81.49, -35.30, -4.20, 26.99, -15.54, 3.99, 
87.00, 10.10, 81.90, -35.43, -4.19, 26.72, -15.56, 3.99, 
88.00, 10.47, 81.44, -35.35, -4.18, 26.46, -15.58, 3.98, 
89.00, 10.36, 79.85, -35.57, -4.17, 26.20, -15.60, 3.98, 
90.00, 10.45, 81.33, -35.51, -4.16, 25.93, -15.62, 3.98, 
91.00, 10.54, 80.57, -35.42, -4.15, 25.67, -15.64, 3.98, 
92.00, 10.39, 80.47, -35.31, -4.14, 25.40, -15.66, 3.98, 
93.00, 10.34, 80.89, -35.77, -4.14, 25.14, -15.68, 3.98, 
94.00, 10.38, 79.60, -35.96, -4.13, 24.88, -15.70, 3.98, 
95.00, 10.33, 80.93, -35.84, -4.12, 24.61, -15.72, 3.98, 
96.00, 10.63, 79.45, -35.62, -4.11, 24.35, -15.74, 3.98, 
97.00, 10.15, 79.73, -35.53, -4.10, 24.08, -15.76, 3.98, 
98.00, 10.04, 79.52, -35.22, -4.09, 23.82, -15.78, 3.97, 
99.00, 10.35, 78.82, -35.21, -4.08, 23.56, -15.80, 3.97, 
100.00, 10.28, 79.67, -35.03, -4.07, 23.29, -15.82, 3.97, 
101.00, 10.12, 78.63, -35.31, -4.07, 23.03, -15.84, 3.98, 
102.00, 10.13, 79.74, -34.65, -4.06, 22.77, -15.86, 3.98, 
103.00, 10.18, 77.86, -34.54, -4.05, 22.50, -15.88, 3.98, 
104.00, 10.23, 78.46, -34.86, -4.04, 22.24, -15.90, 3.97, 
105.00, 10.16, 78.52, -34.74, -4.03, 21.97, -15.92, 3.98, 
106.00, 10.39, 77.37, -35.06, -4.02, 21.71, -15.94, 3.98, 
107.00, 10.58, 78.31, -35.13, -4.01, 21.45, -15.96, 3.98, 
108.00, 10.23, 76.36, -35.43, -4.00, 21.18, -15.98, 3.98, 
109.00, 10.42, 77.65, -35.40, -4.00, 20.92, -16.00, 3.98, 
110.00, 10.20, 76.57, -34.81, -3.99, 20.66, -16.02, 3.98, 
111.00, 10.18, 76.36, -35.28, -3.98, 20.39, -16.04, 3.98, 
112.00, 10.35, 76.57, -34.98, -3.97, 20.13, -16.06, 3.98, 
113.00, 10.27, 75.05, -35.28, -3.96, 19.87, -16.08, 3.97, 
114.00, 10.13, 76.31, -35.33, -3.95, 19.60, -16.10, 3.97, 
115.00, 10.30, 74.61, -35.17, -3.94, 19.34, -16.13, 3.97, 
116.00, 10.26, 75.44, -35.66, -3.94, 19.08, -16.15, 3.97, 
117.00, 10.36, 74.61, -35.36, -3.93, 18.81, -16.17, 3.97, 
118.00, 10.48, 73.88, -35.76, -3.92, 18.55, -16.19, 3.98, 
119.00, 10.14, 73.74, -35.76, -3.91, 18.29, -16.21, 3.98, 
120.00, 10.50, 73.07, -35.83, -3.90, 18.03, -16.23, 3.97, 
121.00, 10.49, 74.33, -35.77, -3.89, 17.76, -16.25, 3.96, 
122.00, 10.37, 72.33, -35.42, -3.88, 17.50, -16.27, 3.96, 
123.00, 10.10, 73.00, -35.34, -3.87, 17.24, -16.29, 3.96, 
124.00, 10.37, 72.95, -35.67, -3.87, 16.97, -16.31, 3.97, 
125.00, 10.61, 71.75, -35.50, -3.86, 16.71, -16.33, 3.97, 
126.00, 10.36, 72.71, -35.60, -3.85, 16.45, -16.35, 3.97, 
127.00, 10.47, 70.72, -35.59, -3.84, 16.19, -16.37, 3.97, 
128.00, 10.30, 72.71, -35.31, -3.83, 15.92, -16.39, 3.97, 
129.00, 10.18, 70.55, -35.66, -3.82, 15.66, -16.41, 3.97, 
130.00, 10.43, 70.75, -35.56, -3.81, 15.40, -16.43, 3.97, 
131.00, 10.51, 70.69, -35.30, -3.81, 15.14, -16.45, 3.96, 
132.00, 10.51, 69.65, -35.48, -3.80, 14.87, -16.47, 3.95, 
133.00, 10.75, 71.27, -35.43, -3.79, 14.61, -16.49, 3.95, 
134.00, 10.79, 69.82, -35.33, -3.78, 14.35, -16.52, 3.95, 
135.00, 10.69, 71.23, -34.99, -3.77, 14.09, -16.54, 3.95, 
136.00, 10.28, 70.35, -35.23, -3.76, 13.83, -16.56, 3.94, 
137.00, 10.67, 69.51, -36.03, -3.75, 13.56, -16.58, 3.95, 
138.00, 10.54, 70.13, -35.38, -3.75, 13.30, -16.60, 3.95, 
139.00, 10.63, 67.98, -35.28, -3.74, 13.04, -16.62, 3.95, 
140.00, 10.63, 70.54, -35.71, -3.73, 12.78, -16.64, 3.93, 
141.00, 10.21, 69.20, -35.24, -3.72, 12.52, -16.66, 3.93, 
142.00, 10.04, 69.94, -35.63, -3.71, 12.25, -16.68, 3.94, 
143.00, 10.34, 69.16, -35.63, -3.70, 11.99, -16.70, 3.95, 
144.00, 10.57, 67.65, -35.55, -3.69, 11.73, -16.72, 3.94, 
145.00, 10.51, 68.09, -35.19, -3.69, 11.47, -16.74, 3.92, 
146.00, 10.45, 67.07, -35.58, -3.68, 11.21, -16.76, 3.92, 
147.00, 10.37, 68.02, -35.78, -3.67, 10.95, -16.78, 3.92, 
148.00, 10.26, 66.69, -35.85, -3.66, 10.68, -16.80, 3.93, 
149.00, 10.42, 66.82, -36.28, -3.65, 10.42, -16.83, 3.94, 
150.00, 10.63, 67.54, -35.82, -3.64, 10.16, -16.85, 3.94, 
151.00, 10.82, 66.75, -35.56, -3.63, 9.90, -16.87, 3.93, 
152.00, 10.42, 67.78, -35.73, -3.63, 9.64, -16.89, 3.93, 
153.00, 10.37, 65.27, -35.84, -3.62, 9.38, -16.91, 3.94, 
154.00, 10.49, 66.23, -35.89, -3.61, 9.12, -16.93, 3.94, 
155.00, 10.57, 65.82, -35.71, -3.60, 8.86, -16.95, 3.91, 
156.00, 10.54, 65.67, -35.96, -3.59, 8.59, -16.97, 3.92, 
157.00, 10.66, 65.83, -35.93, -3.58, 8.33, -16.99, 3.93, 
158.00, 10.48, 64.67, -36.14, -3.58, 8.07, -17.01, 3.93, 
159.00, 10.43, 66.56, -36.33, -3.57, 7.81, -17.03, 3.92, 
160.00, 10.43, 65.42, -35.89, -3.56, 7.55, -17.06, 3.86, 
161.00, 10.56, 65.15, -36.15, -3.55, 7.29, -17.08, 3.92, 
162.00, 10.34, 63.82, -36.26, -3.54, 7.03, -17.10, 3.93, 
163.00, 10.42, 63.43, -35.64, -3.53, 6.77, -17.12, 3.93, 
164.00, 10.30, 64.04, -35.84, -3.52, 6.51, -17.14, 3.92, 
165.00, 10.58, 62.74, -36.09, -3.52, 6.25, -17.16, 3.92, 
166.00, 10.79, 64.25, -36.47, -3.51, 5.99, -17.18, 3.93, 
167.00, 10.49, 62.88, -36.50, -3.50, 5.73, -17.20, 3.93, 
168.00, 10.25, 63.89, -36.54, -3.49, 5.47, -17.22, 3.91, 
169.00, 10.46, 63.40, -36.55, -3.48, 5.21, -17.24, 3.92, 
170.00, 10.36, 61.84, -36.22, -3.47, 4.95, -17.26, 3.92, 
171.00, 10.46, 62.16, -36.54, -3.47, 4.69, -17.29, 3.91, 
172.00, 10.59, 61.18, -36.44, -3.46, 4.43, -17.31, 3.90, 
173.00, 10.46, 61.81, -36.77, -3.45, 4.17, -17.33, 3.90, 
174.00, 10.35, 60.95, -36.65, -3.44, 3.91, -17.35, 3.90, 
175.00, 10.61, 62.18, -36.56, -3.43, 3.65, -17.37, 3.88, 
176.00, 10.61, 61.94, -36.77, -3.42, 3.39, -17.39, 3.88, 
177.00, 10.35, 61.39, -36.72, -3.42, 3.13, -17.41, 3.83, 
178.00, 10.53, 61.03, -36.74, -3.41, 2.87, -17.43, 3.85, 
179.00, 10.43, 60.57, -36.52, -3.40, 2.61, -17.45, 3.83, 
180.00, 10.46, 61.20, -36.96, -3.39, 2.35, -17.48, 3.87, 
181.00, 10.66, 60.14, -36.51, -3.38, 2.09, -17.50, 3.86, 
182.00, 10.77, 60.48, -36.70, -3.37, 1.83, -17.52, 3.88, 
183.00, 10.93, 59.25, -36.35, -3.37, 1.57, -17.54, 3.88, 
184.00, 11.02, 59.56, -36.34, -3.36, 1.32, -17.56, 3.87, 
185.00, 10.71, 60.00, -36.82, -3.35, 1.06, -17.58, 3.86, 
186.00, 10.59, 59.19, -36.98, -3.34, 0.80, -17.60, 3.84, 
187.00, 10.59, 59.13, -36.94, -3.33, 0.54, -17.62, 3.85, 
188.00, 10.50, 58.80, -36.41, -3.32, 0.28, -17.65, 3.81, 
189.00, 10.73, 58.47, -37.14, -3.32, 0.02, -17.67, 3.87, 
190.00, 10.75, 57.22, -36.87, -3.31, -0.24, -17.69, 3.89, 
191.00, 10.76, 57.66, -37.23, -3.30, -0.49, -17.71, 3.91, 
192.00, 10.76, 56.07, -36.78, -3.29, -0.75, -17.73, 3.91, 
193.00, 10.73, 55.79, -36.83, -3.28, -1.01, -17.75, 3.90, 
194.00, 10.43, 56.38, -36.83, -3.27, -1.27, -17.77, 3.91, 
195.00, 10.33, 55.69, -36.66, -3.27, -1.53, -17.79, 3.91, 
196.00, 10.55, 56.01, -36.63, -3.26, -1.78, -17.82, 3.92, 
197.00, 10.84, 54.24, -36.72, -3.25, -2.04, -17.84, 3.91, 
198.00, 10.83, 55.48, -36.61, -3.24, -2.30, -17.86, 3.91, 
199.00, 10.63, 54.47, -36.25, -3.23, -2.56, -17.88, 3.92, 
200.00, 10.89, 55.34, -36.44, -3.22, -2.82, -17.90, 3.91, 
201.00, 10.68, 54.42, -36.20, -3.22, -3.07, -17.92, 3.92, 
202.00, 10.53, 53.86, -36.93, -3.21, -3.33, -17.94, 3.90, 
203.00, 10.56, 55.01, -36.90, -3.20, -3.59, -17.96, 3.92, 
204.00, 10.64, 53.66, -37.10, -3.19, -3.84, -17.99, 3.90, 
205.00, 10.87, 53.42, -36.91, -3.18, -4.10, -18.01, 3.91, 
206.00, 10.87, 52.48, -36.90, -3.18, -4.36, -18.03, 3.90, 
207.00, 10.58, 53.82, -37.03, -3.17, -4.62, -18.05, 3.91, 
208.00, 10.95, 52.99, -36.63, -3.16, -4.87, -18.07, 3.91, 
209.00, 10.67, 52.88, -36.61, -3.15, -5.13, -18.09, 3.91, 
210.00, 10.49, 52.66, -37.24, -3.14, -5.39, -18.11, 3.90, 
211.00, 10.71, 52.52, -36.92, -3.14, -5.64, -18.14, 3.91, 
212.00, 10.63, 52.84, -37.05, -3.13, -5.90, -18.16, 3.90, 
213.00, 10.62, 51.55, -36.73, -3.12, -6.16, -18.18, 3.91, 
214.00, 10.55, 51.81, -36.94, -3.11, -6.41, -18.20, 3.90, 
215.00, 10.70, 50.78, -37.96, -3.10, -6.67, -18.22, 3.91, 
216.00, 10.86, 51.55, -36.95, -3.09, -6.92, -18.24, 3.90, 
217.00, 10.70, 50.02, -36.93, -3.09, -7.18, -18.27, 3.91, 
218.00, 10.89, 50.61, -37.22, -3.08, -7.44, -18.29, 3.91, 
219.00, 10.71, 50.38, -37.30, -3.07, -7.69, -18.31, 3.90, 
220.00, 10.75, 49.97, -36.90, -3.06, -7.95, -18.33, 3.90, 
221.00, 10.91, 49.85, -36.98, -3.05, -8.20, -18.35, 3.90, 
222.00, 10.88, 49.23, -36.68, -3.05, -8.46, -18.37, 3.90, 
223.00, 10.89, 49.32, -36.86, -3.04, -8.71, -18.39, 3.90, 
224.00, 10.57, 48.71, -37.64, -3.03, -8.97, -18.42, 3.90, 
225.00, 10.68, 49.15, -37.21, -3.02, -9.22, -18.44, 3.88, 
226.00, 10.67, 48.23, -37.23, -3.01, -9.48, -18.46, 3.90, 
227.00, 11.11, 48.58, -37.11, -3.01, -9.73, -18.48, 3.89, 
228.00, 10.80, 48.00, -37.13, -3.00, -9.99, -18.50, 3.89, 
229.00, 10.90, 47.63, -37.22, -2.99, -10.24, -18.52, 3.89, 
230.00, 10.81, 47.61, -37.18, -2.98, -10.50, -18.55, 3.89, 
231.00, 10.87, 47.19, -37.16, -2.97, -10.75, -18.57, 3.89, 
232.00, 11.11, 47.25, -36.91, -2.97, -11.01, -18.59, 3.89, 
233.00, 11.06, 46.78, -37.15, -2.96, -11.26, -18.61, 3.88, 
234.00, 10.57, 47.01, -37.31, -2.95, -11.52, -18.63, 3.89, 
235.00, 10.56, 45.98, -37.42, -2.94, -11.77, -18.66, 3.89, 
236.00, 10.83, 46.54, -37.02, -2.93, -12.02, -18.68, 3.88, 
237.00, 10.85, 45.61, -37.35, -2.93, -12.28, -18.70, 3.88, 
238.00, 10.90, 45.88, -36.58, -2.92, -12.53, -18.72, 3.88, 
239.00, 10.91, 45.71, -37.23, -2.91, -12.78, -18.74, 3.88, 
240.00, 10.92, 45.38, -37.49, -2.90, -13.04, -18.76, 3.88, 
241.00, 10.92, 45.44, -37.19, -2.90, -13.29, -18.79, 3.88, 
242.00, 11.06, 44.86, -37.45, -2.89, -13.54, -18.81, 3.88, 
243.00, 11.19, 44.50, -37.38, -2.88, -13.80, -18.83, 3.88, 
244.00, 10.99, 44.33, -37.20, -2.87, -14.05, -18.85, 3.88, 
245.00, 10.89, 44.25, -37.43, -2.86, -14.30, -18.87, 3.88, 
246.00, 10.95, 43.78, -37.34, -2.86, -14.56, -18.89, 3.87, 
247.00, 10.85, 44.16, -37.29, -2.85, -14.81, -18.92, 3.88, 
248.00, 10.90, 43.54, -37.16, -2.84, -15.06, -18.94, 3.88, 
249.00, 10.71, 43.53, -37.62, -2.83, -15.31, -18.96, 3.87, 
250.00, 10.98, 43.11, -36.98, -2.82, -15.57, -18.98, 3.87, 
251.00, 10.91, 43.05, -36.67, -2.82, -15.82, -19.00, 3.87, 
252.00, 11.08, 42.86, -38.28, -2.81, -16.07, -19.03, 3.87, 
253.00, 11.18, 42.28, -36.91, -2.80, -16.32, -19.05, 3.87, 
254.00, 11.25, 42.15, -37.55, -2.79, -16.58, -19.07, 3.87, 
255.00, 11.10, 42.11, -37.86, -2.79, -16.83, -19.09, 3.87, 
