---START---
-255.00, 31.28, 165.47, -42.65, 
-254.00, 25.53, 159.71, -34.94, 
-253.00, 25.32, 159.48, -35.30, 
-252.00, 25.34, 159.42, -34.81, 
-251.00, 25.32, 159.21, -34.21, 
-250.00, 25.25, 159.06, -34.00, 
-249.00, 25.03, 158.40, -34.88, 
-248.00, 25.19, 158.75, -34.92, 
-247.00, 25.14, 158.10, -35.24, 
-246.00, 25.08, 157.71, -35.41, 
-245.00, 25.36, 158.55, -35.44, 
-244.00, 25.18, 157.44, -35.23, 
-243.00, 25.33, 156.90, -35.54, 
-242.00, 25.41, 156.68, -35.55, 
-241.00, 25.60, 156.43, -35.28, 
-240.00, 25.55, 155.55, -35.41, 
-239.00, 25.51, 156.03, -35.78, 
-238.00, 25.74, 155.43, -34.88, 
-237.00, 25.47, 154.95, -34.76, 
-236.00, 25.71, 155.28, -35.10, 
-235.00, 25.63, 155.10, -34.86, 
-234.00, 25.51, 154.19, -34.97, 
-233.00, 25.28, 154.48, -35.14, 
-232.00, 25.24, 154.03, -35.13, 
-231.00, 25.39, 153.53, -35.14, 
-230.00, 25.26, 153.66, -34.86, 
-229.00, 25.26, 152.92, -35.06, 
-228.00, 25.49, 152.56, -34.87, 
-227.00, 25.45, 152.86, -35.02, 
-226.00, 25.26, 152.55, -35.00, 
-225.00, 25.54, 151.70, -34.65, 
-224.00, 25.48, 152.04, -35.12, 
-223.00, 25.70, 152.72, -35.48, 
-222.00, 25.65, 150.96, -35.30, 
-221.00, 25.73, 152.01, -35.76, 
-220.00, 25.48, 150.60, -35.04, 
-219.00, 25.55, 151.00, -35.39, 
-218.00, 25.76, 150.57, -35.41, 
-217.00, 25.74, 150.90, -35.21, 
-216.00, 25.59, 149.70, -35.29, 
-215.00, 25.81, 150.17, -35.51, 
-214.00, 25.66, 149.05, -35.38, 
-213.00, 25.55, 148.43, -35.83, 
-212.00, 25.55, 149.32, -35.66, 
-211.00, 25.55, 148.27, -35.49, 
-210.00, 25.67, 149.03, -35.87, 
-209.00, 25.40, 147.97, -36.30, 
-208.00, 25.42, 148.08, -35.35, 
-207.00, 25.72, 147.51, -35.56, 
-206.00, 25.29, 148.11, -35.66, 
-205.00, 25.71, 146.83, -35.79, 
-204.00, 26.09, 148.23, -36.20, 
-203.00, 25.89, 146.92, -36.02, 
-202.00, 25.85, 146.37, -36.07, 
-201.00, 25.83, 146.24, -36.22, 
-200.00, 25.73, 146.43, -36.13, 
-199.00, 25.62, 145.55, -35.92, 
-198.00, 25.67, 145.85, -36.42, 
-197.00, 26.19, 145.86, -35.76, 
-196.00, 25.79, 144.20, -35.44, 
-195.00, 25.93, 145.88, -35.51, 
-194.00, 25.92, 143.76, -35.63, 
-193.00, 26.16, 145.35, -35.85, 
-192.00, 25.89, 143.82, -36.09, 
-191.00, 26.02, 144.44, -36.01, 
-190.00, 26.20, 143.07, -36.10, 
-189.00, 26.31, 143.79, -35.83, 
-188.00, 26.17, 142.13, -35.31, 
-187.00, 25.90, 143.15, -35.78, 
-186.00, 25.80, 142.93, -35.96, 
-185.00, 25.91, 141.55, -35.95, 
-184.00, 25.92, 142.78, -35.94, 
-183.00, 26.08, 140.40, -36.28, 
-182.00, 25.96, 142.74, -36.08, 
-181.00, 26.43, 140.75, -35.90, 
-180.00, 26.49, 141.82, -36.03, 
-179.00, 26.36, 140.46, -35.87, 
-178.00, 26.49, 141.04, -35.96, 
-177.00, 26.16, 140.14, -35.71, 
-176.00, 26.23, 140.72, -35.43, 
-175.00, 26.54, 139.67, -35.63, 
-174.00, 26.47, 140.65, -35.92, 
-173.00, 26.72, 138.74, -35.71, 
-172.00, 26.28, 139.68, -36.08, 
-171.00, 26.52, 138.16, -35.93, 
-170.00, 26.32, 139.22, -36.10, 
-169.00, 26.51, 137.87, -35.61, 
-168.00, 26.36, 138.24, -36.22, 
-167.00, 26.33, 138.52, -35.87, 
-166.00, 26.00, 135.92, -36.52, 
-165.00, 25.97, 138.44, -36.29, 
-164.00, 26.23, 135.95, -36.37, 
-163.00, 26.33, 138.03, -36.54, 
-162.00, 26.31, 135.19, -36.46, 
-161.00, 26.31, 137.18, -36.66, 
-160.00, 26.40, 135.19, -36.56, 
-159.00, 26.45, 136.62, -36.24, 
-158.00, 26.28, 134.44, -36.74, 
-157.00, 26.48, 134.97, -36.13, 
-156.00, 26.90, 134.50, -36.46, 
-155.00, 26.43, 134.76, -36.48, 
-154.00, 26.66, 133.97, -36.14, 
-153.00, 26.61, 134.41, -35.95, 
-152.00, 26.78, 133.91, -36.09, 
-151.00, 26.62, 133.55, -36.31, 
-150.00, 26.27, 132.85, -36.30, 
-149.00, 26.26, 133.68, -35.94, 
-148.00, 26.40, 132.68, -36.00, 
-147.00, 26.38, 132.79, -36.43, 
-146.00, 26.54, 131.82, -36.05, 
-145.00, 26.67, 131.94, -36.54, 
-144.00, 26.46, 132.80, -36.34, 
-143.00, 26.52, 130.40, -36.98, 
-142.00, 26.26, 132.72, -37.00, 
-141.00, 26.24, 129.75, -37.08, 
-140.00, 26.24, 132.44, -36.69, 
-139.00, 26.24, 130.22, -36.65, 
-138.00, 26.41, 131.27, -36.53, 
-137.00, 26.57, 130.91, -36.39, 
-136.00, 26.26, 128.98, -36.41, 
-135.00, 26.46, 130.89, -36.25, 
-134.00, 26.35, 128.62, -36.78, 
-133.00, 26.20, 130.76, -37.06, 
-132.00, 26.49, 127.65, -36.80, 
-131.00, 26.25, 129.86, -37.09, 
-130.00, 26.49, 127.45, -36.93, 
-129.00, 26.40, 129.45, -37.27, 
-128.00, 26.65, 127.21, -36.85, 
-127.00, 26.72, 128.53, -37.28, 
-126.00, 27.19, 127.65, -36.90, 
-125.00, 26.51, 126.39, -36.84, 
-124.00, 26.57, 127.77, -37.11, 
-123.00, 26.45, 125.36, -37.22, 
-122.00, 26.46, 127.44, -37.42, 
-121.00, 26.57, 124.83, -36.97, 
-120.00, 26.38, 126.83, -36.73, 
-119.00, 26.42, 124.63, -36.93, 
-118.00, 26.56, 126.09, -36.88, 
-117.00, 26.40, 125.30, -36.95, 
-116.00, 26.58, 125.49, -37.06, 
-115.00, 26.12, 124.38, -36.96, 
-114.00, 26.49, 124.45, -37.11, 
-113.00, 26.65, 123.71, -36.69, 
-112.00, 26.71, 122.70, -37.12, 
-111.00, 26.64, 125.13, -37.51, 
-110.00, 26.52, 121.78, -37.07, 
-109.00, 26.58, 122.92, -36.97, 
-108.00, 26.87, 122.33, -37.89, 
-107.00, 26.31, 122.10, -37.45, 
-106.00, 26.58, 122.05, -37.93, 
-105.00, 26.68, 122.26, -38.07, 
-104.00, 26.43, 122.03, -37.33, 
-103.00, 26.48, 120.29, -37.59, 
-102.00, 26.55, 122.84, -37.60, 
-101.00, 26.17, 120.12, -37.43, 
-100.00, 26.25, 121.08, -37.15, 
-99.00, 26.25, 120.72, -37.18, 
-98.00, 26.16, 120.87, -37.11, 
-97.00, 26.22, 119.86, -37.22, 
-96.00, 26.36, 119.32, -37.68, 
-95.00, 26.46, 120.72, -37.33, 
-94.00, 26.36, 117.92, -37.21, 
-93.00, 26.29, 119.93, -37.78, 
-92.00, 26.28, 118.11, -37.37, 
-91.00, 26.37, 118.77, -37.70, 
-90.00, 26.50, 118.68, -37.74, 
-89.00, 26.49, 118.64, -37.31, 
-88.00, 26.03, 116.33, -37.61, 
-87.00, 26.32, 118.09, -37.44, 
-86.00, 26.28, 117.27, -37.53, 
-85.00, 26.46, 117.59, -37.69, 
-84.00, 26.48, 115.95, -37.87, 
-83.00, 26.50, 117.08, -37.86, 
-82.00, 26.66, 116.00, -37.76, 
-81.00, 26.44, 115.31, -37.76, 
-80.00, 26.40, 117.04, -37.45, 
-79.00, 26.50, 114.36, -37.52, 
-78.00, 26.78, 115.04, -37.50, 
-77.00, 26.59, 113.55, -36.86, 
-76.00, 26.67, 115.62, -37.88, 
-75.00, 26.69, 113.96, -37.64, 
-74.00, 26.77, 114.22, -37.89, 
-73.00, 27.07, 113.78, -37.76, 
-72.00, 26.84, 113.38, -37.65, 
-71.00, 26.72, 112.69, -37.84, 
-70.00, 26.75, 112.01, -37.99, 
-69.00, 26.67, 113.24, -37.73, 
-68.00, 26.52, 111.92, -37.93, 
-67.00, 26.82, 112.54, -37.85, 
-66.00, 26.96, 110.79, -37.99, 
-65.00, 26.69, 112.01, -37.69, 
-64.00, 26.65, 110.94, -38.17, 
-63.00, 26.72, 111.27, -38.20, 
-62.00, 27.02, 110.45, -37.67, 
-61.00, 26.81, 110.41, -38.11, 
-60.00, 27.31, 111.18, -38.69, 
-59.00, 27.07, 110.12, -38.51, 
-58.00, 27.27, 109.94, -38.20, 
-57.00, 27.18, 108.50, -38.16, 
-56.00, 27.26, 109.62, -38.23, 
-55.00, 27.08, 109.05, -37.92, 
-54.00, 26.87, 109.49, -38.52, 
-53.00, 27.10, 107.61, -38.01, 
-52.00, 26.98, 108.05, -37.91, 
-51.00, 27.02, 107.46, -38.36, 
-50.00, 26.73, 108.73, -38.18, 
-49.00, 26.80, 108.28, -38.28, 
-48.00, 26.81, 106.91, -38.53, 
-47.00, 27.08, 107.43, -37.94, 
-46.00, 26.82, 106.13, -37.95, 
-45.00, 27.06, 106.98, -38.12, 
-44.00, 27.19, 106.35, -38.33, 
-43.00, 26.95, 106.61, -38.63, 
-42.00, 27.20, 104.92, -38.61, 
-41.00, 26.94, 105.74, -38.56, 
-40.00, 27.07, 104.83, -38.72, 
-39.00, 27.19, 104.65, -39.08, 
-38.00, 26.95, 104.74, -38.85, 
-37.00, 26.81, 104.40, -38.57, 
-36.00, 27.07, 104.06, -39.11, 
-35.00, 26.92, 103.19, -38.62, 
-34.00, 26.82, 103.38, -38.96, 
-33.00, 27.05, 102.34, -38.42, 
-32.00, 27.34, 103.22, -38.75, 
-31.00, 27.23, 102.48, -38.91, 
-30.00, 27.48, 102.55, -38.90, 
-29.00, 27.22, 101.65, -38.44, 
-28.00, 27.10, 101.60, -38.60, 
-27.00, 27.14, 100.94, -39.01, 
-26.00, 27.31, 101.20, -38.62, 
-25.00, 27.33, 101.30, -38.67, 
-24.00, 27.39, 101.02, -38.80, 
-23.00, 27.04, 101.02, -38.97, 
-22.00, 27.38, 99.98, -39.56, 
-21.00, 27.23, 99.99, -39.38, 
-20.00, 27.56, 99.25, -39.18, 
-19.00, 27.55, 99.63, -38.75, 
-18.00, 27.45, 98.94, -39.32, 
-17.00, 27.58, 98.80, -39.10, 
-16.00, 27.53, 98.10, -39.39, 
-15.00, 27.63, 99.35, -38.82, 
-14.00, 27.74, 98.18, -39.32, 
-13.00, 27.76, 98.20, -39.67, 
-12.00, 27.71, 97.84, -39.52, 
-11.00, 27.59, 97.74, -39.25, 
-10.00, 27.70, 97.38, -39.09, 
-9.00, 27.73, 97.16, -39.19, 
-8.00, 27.68, 96.78, -39.07, 
-7.00, 27.61, 96.71, -39.21, 
-6.00, 27.73, 96.45, -39.17, 
-5.00, 27.66, 95.85, -39.15, 
-4.00, 27.85, 95.59, -38.98, 
-3.00, 27.82, 95.15, -39.29, 
-2.00, 27.67, 95.00, -39.30, 
-1.00, 27.36, 94.79, -39.52, 
0.00, 27.59, 94.69, -39.33, 
1.00, 27.52, 94.57, -39.66, 
2.00, 27.73, 94.13, -39.12, 
3.00, 27.65, 93.89, -39.32, 
4.00, 27.67, 93.31, -39.47, 
5.00, 27.46, 93.24, -39.54, 
6.00, 27.57, 92.94, -39.39, 
7.00, 27.80, 92.80, -39.38, 
8.00, 27.62, 92.23, -39.47, 
9.00, 27.62, 91.98, -39.79, 
10.00, 27.48, 91.67, -39.95, 
11.00, 27.55, 91.58, -39.92, 
12.00, 27.62, 91.07, -39.76, 
13.00, 27.35, 91.00, -39.96, 
14.00, 27.20, 90.70, -39.52, 
15.00, 27.64, 90.34, -39.76, 
16.00, 27.64, 90.13, -39.75, 
17.00, 27.55, 89.95, -39.82, 
18.00, 27.55, 89.16, -39.91, 
19.00, 27.31, 89.50, -40.40, 
20.00, 27.38, 89.11, -39.74, 
21.00, 27.68, 89.11, -40.30, 
22.00, 27.79, 88.41, -39.91, 
23.00, 27.93, 88.44, -39.84, 
24.00, 28.06, 88.54, -39.90, 
25.00, 27.69, 87.45, -39.75, 
26.00, 27.39, 87.26, -39.58, 
27.00, 27.74, 86.60, -39.63, 
28.00, 27.65, 86.67, -39.85, 
29.00, 28.02, 86.42, -39.57, 
30.00, 27.96, 85.71, -39.85, 
31.00, 27.54, 86.55, -39.80, 
32.00, 27.76, 85.39, -40.03, 
33.00, 27.70, 85.31, -40.20, 
34.00, 27.75, 85.07, -40.00, 
35.00, 27.76, 85.30, -40.14, 
36.00, 27.81, 84.90, -40.11, 
37.00, 28.02, 83.74, -40.29, 
38.00, 27.95, 84.75, -39.63, 
39.00, 28.10, 83.87, -40.26, 
40.00, 28.18, 84.27, -39.98, 
41.00, 28.02, 82.84, -40.11, 
42.00, 27.98, 83.35, -40.52, 
43.00, 27.88, 82.92, -40.37, 
44.00, 28.01, 81.89, -40.29, 
45.00, 27.92, 81.80, -39.94, 
46.00, 27.87, 81.79, -40.52, 
47.00, 27.42, 82.39, -40.03, 
48.00, 27.59, 81.13, -40.16, 
49.00, 27.82, 81.31, -40.33, 
50.00, 27.86, 81.13, -40.12, 
51.00, 28.13, 81.75, -40.22, 
52.00, 28.03, 79.65, -40.23, 
53.00, 27.88, 79.61, -40.31, 
54.00, 28.15, 80.49, -40.15, 
55.00, 28.17, 80.03, -40.80, 
56.00, 28.13, 79.37, -40.37, 
57.00, 28.08, 79.03, -40.48, 
58.00, 28.14, 80.03, -40.25, 
59.00, 28.01, 77.71, -40.27, 
60.00, 27.82, 78.08, -40.34, 
61.00, 28.03, 77.96, -40.15, 
62.00, 27.89, 78.67, -40.14, 
63.00, 28.01, 76.66, -40.29, 
64.00, 27.96, 77.49, -40.46, 
65.00, 27.56, 77.33, -40.29, 
66.00, 28.11, 75.93, -40.49, 
67.00, 28.06, 77.73, -40.32, 
68.00, 27.94, 75.74, -40.73, 
69.00, 27.82, 77.24, -40.84, 
70.00, 28.03, 75.75, -40.56, 
71.00, 27.99, 75.99, -40.14, 
72.00, 28.25, 75.04, -40.28, 
73.00, 28.20, 74.66, -40.25, 
74.00, 28.23, 74.30, -40.42, 
75.00, 28.24, 73.78, -40.50, 
76.00, 28.13, 75.28, -40.39, 
77.00, 28.21, 72.66, -40.28, 
78.00, 27.99, 75.10, -40.35, 
79.00, 27.92, 72.92, -40.62, 
80.00, 28.04, 73.30, -40.54, 
81.00, 28.14, 72.81, -41.01, 
82.00, 28.14, 73.23, -41.07, 
83.00, 28.08, 71.45, -40.72, 
84.00, 28.25, 72.24, -41.08, 
85.00, 28.13, 72.05, -40.83, 
86.00, 28.10, 70.61, -40.70, 
87.00, 28.08, 72.29, -40.57, 
88.00, 27.97, 70.10, -40.78, 
89.00, 28.12, 72.18, -40.86, 
90.00, 28.09, 69.73, -40.59, 
91.00, 28.08, 71.49, -40.82, 
92.00, 28.11, 69.91, -40.77, 
93.00, 27.89, 69.97, -41.10, 
94.00, 27.97, 69.65, -40.60, 
95.00, 28.13, 69.56, -40.70, 
96.00, 28.16, 68.88, -40.53, 
97.00, 28.06, 68.87, -41.04, 
98.00, 28.02, 68.04, -41.39, 
99.00, 28.23, 68.20, -41.57, 
100.00, 28.43, 68.33, -40.82, 
101.00, 28.61, 67.70, -41.04, 
102.00, 28.69, 68.53, -41.26, 
103.00, 28.52, 65.87, -41.25, 
104.00, 28.50, 68.45, -41.65, 
105.00, 28.31, 65.51, -41.26, 
106.00, 28.55, 67.45, -41.17, 
107.00, 28.72, 65.36, -41.25, 
108.00, 28.55, 66.65, -41.62, 
109.00, 28.73, 65.55, -41.56, 
110.00, 28.57, 65.71, -41.74, 
111.00, 28.43, 64.73, -41.26, 
112.00, 28.57, 65.03, -41.35, 
113.00, 28.48, 64.98, -41.13, 
114.00, 28.38, 64.34, -41.24, 
115.00, 28.31, 64.41, -41.32, 
116.00, 28.73, 63.62, -41.45, 
117.00, 28.77, 64.35, -41.46, 
118.00, 28.56, 63.10, -41.23, 
119.00, 28.54, 63.62, -41.58, 
120.00, 28.78, 62.98, -41.65, 
121.00, 28.61, 62.93, -41.70, 
122.00, 29.07, 62.61, -41.63, 
123.00, 28.64, 62.13, -42.68, 
124.00, 28.48, 62.42, -41.86, 
125.00, 28.35, 61.14, -41.65, 
126.00, 28.56, 61.37, -41.53, 
127.00, 28.66, 60.46, -41.44, 
128.00, 28.89, 60.90, -41.23, 
129.00, 28.87, 59.26, -41.41, 
130.00, 28.49, 60.11, -41.54, 
131.00, 28.92, 59.38, -42.24, 
132.00, 28.91, 59.47, -41.97, 
133.00, 28.87, 59.19, -41.98, 
134.00, 28.89, 59.18, -41.81, 
135.00, 28.52, 58.44, -42.17, 
136.00, 28.75, 59.31, -42.31, 
137.00, 28.71, 56.64, -42.06, 
138.00, 28.87, 58.85, -42.25, 
139.00, 28.49, 55.46, -42.02, 
140.00, 28.51, 58.78, -42.27, 
141.00, 28.94, 56.60, -41.84, 
142.00, 28.65, 56.78, -42.32, 
143.00, 28.60, 56.56, -42.36, 
144.00, 28.98, 56.69, -42.53, 
145.00, 28.97, 55.67, -42.71, 
146.00, 28.96, 56.23, -42.40, 
147.00, 29.21, 55.66, -41.89, 
148.00, 28.96, 54.41, -41.94, 
149.00, 29.16, 56.53, -42.08, 
150.00, 29.08, 53.76, -42.08, 
151.00, 29.29, 54.97, -42.26, 
152.00, 29.18, 52.37, -42.34, 
153.00, 29.19, 54.88, -42.71, 
154.00, 29.43, 52.88, -42.46, 
155.00, 29.15, 53.40, -42.25, 
156.00, 29.21, 54.39, -42.41, 
157.00, 29.11, 52.79, -42.18, 
158.00, 29.36, 53.09, -42.30, 
159.00, 29.27, 51.52, -42.72, 
160.00, 29.18, 52.76, -43.06, 
161.00, 29.10, 51.05, -42.58, 
162.00, 29.04, 51.68, -42.67, 
163.00, 29.03, 50.87, -42.56, 
164.00, 29.16, 50.50, -42.50, 
165.00, 29.01, 52.33, -42.78, 
166.00, 28.91, 49.57, -42.85, 
167.00, 29.25, 51.05, -43.05, 
168.00, 29.41, 48.66, -42.42, 
169.00, 29.11, 51.29, -42.39, 
170.00, 28.95, 48.83, -42.10, 
171.00, 28.71, 49.63, -42.41, 
172.00, 29.20, 49.00, -42.56, 
173.00, 29.01, 48.82, -42.84, 
174.00, 29.29, 49.83, -42.27, 
175.00, 28.83, 48.97, -42.56, 
176.00, 28.76, 48.72, -42.17, 
177.00, 28.83, 46.34, -42.20, 
178.00, 29.23, 47.15, -42.87, 
179.00, 28.90, 46.24, -42.73, 
180.00, 28.94, 47.46, -43.05, 
181.00, 29.23, 47.09, -42.67, 
182.00, 28.97, 46.17, -43.20, 
183.00, 28.82, 46.70, -42.84, 
184.00, 28.90, 45.22, -42.65, 
185.00, 28.97, 45.91, -43.08, 
186.00, 29.22, 44.86, -42.72, 
187.00, 29.05, 46.57, -43.18, 
188.00, 29.23, 45.11, -43.71, 
189.00, 29.34, 45.28, -43.10, 
190.00, 29.42, 44.33, -43.01, 
191.00, 29.11, 44.31, -43.28, 
192.00, 29.15, 44.40, -43.23, 
193.00, 29.03, 43.05, -43.46, 
194.00, 29.23, 43.56, -43.36, 
195.00, 29.14, 42.00, -43.28, 
196.00, 29.63, 42.93, -43.46, 
197.00, 29.08, 41.45, -43.35, 
198.00, 29.36, 42.42, -43.30, 
199.00, 29.46, 41.85, -43.46, 
200.00, 29.54, 42.77, -43.65, 
201.00, 29.25, 42.11, -42.92, 
202.00, 28.99, 41.64, -43.24, 
203.00, 29.38, 41.26, -43.22, 
204.00, 29.48, 40.59, -44.03, 
205.00, 29.57, 40.80, -43.32, 
206.00, 29.20, 39.69, -43.20, 
207.00, 29.37, 40.68, -43.32, 
208.00, 29.29, 39.04, -43.40, 
209.00, 29.17, 39.54, -43.74, 
210.00, 29.32, 38.78, -43.38, 
211.00, 29.49, 39.65, -43.41, 
212.00, 29.44, 38.44, -42.86, 
213.00, 29.01, 38.75, -43.08, 
214.00, 28.96, 37.88, -43.10, 
215.00, 29.35, 37.91, -43.40, 
216.00, 28.93, 38.26, -43.59, 
217.00, 29.04, 37.72, -43.37, 
218.00, 29.11, 37.58, -43.53, 
219.00, 29.09, 36.33, -43.10, 
220.00, 29.62, 36.70, -42.90, 
221.00, 29.26, 35.68, -43.66, 
222.00, 29.04, 36.50, -44.00, 
223.00, 29.13, 35.46, -43.65, 
224.00, 29.36, 36.43, -43.86, 
225.00, 29.41, 35.50, -43.72, 
226.00, 29.50, 35.72, -43.92, 
227.00, 29.32, 35.26, -43.39, 
228.00, 29.48, 35.14, -43.98, 
229.00, 29.45, 34.72, -44.34, 
230.00, 29.66, 34.36, -44.29, 
231.00, 29.39, 34.44, -44.46, 
232.00, 29.54, 34.21, -44.31, 
233.00, 29.64, 34.07, -44.44, 
234.00, 29.76, 33.54, -44.09, 
235.00, 29.56, 33.63, -44.07, 
236.00, 29.69, 32.55, -44.31, 
237.00, 29.70, 32.43, -44.10, 
238.00, 29.52, 31.82, -43.92, 
239.00, 29.45, 31.59, -43.98, 
240.00, 29.75, 31.34, -44.05, 
241.00, 29.92, 31.93, -44.30, 
242.00, 29.57, 31.39, -44.62, 
243.00, 29.44, 31.10, -44.70, 
244.00, 29.50, 29.95, -44.50, 
245.00, 29.47, 30.16, -44.92, 
246.00, 29.20, 29.76, -44.19, 
247.00, 29.18, 29.26, -44.85, 
248.00, 29.66, 29.37, -44.20, 
249.00, 29.57, 29.26, -44.15, 
250.00, 29.75, 29.23, -44.49, 
251.00, 29.46, 28.68, -44.51, 
252.00, 29.42, 28.61, -44.41, 
253.00, 29.57, 28.34, -44.51, 
254.00, 29.54, 27.73, -44.31, 
255.00, 29.52, 27.27, -44.66, 
